D:\METABOLOMICS_DATA\UDN_Pilot1_P_A_UDN000010_M_008.D 23 Jun 16   1:50 am
Start of data points
6.09313,13398349
6.0994,14985967
6.10565,17003110
6.1119,20372660
6.11817,26441606
6.12442,35211276
6.13067,44675288
6.13693,50711248
6.14318,49592652
6.14943,35936212
6.1557,15041412
6.16195,5882726
6.1682,3415903
6.17447,1904135
6.18072,972135
6.18697,606801
6.19322,505616
6.19948,474656
6.20573,460396
6.21198,442880
6.21825,432554
6.2245,425286
6.23075,445096
6.23702,477456
6.24327,502962
6.24952,489902
6.25578,468671
6.26203,445284
6.26828,444597
6.27455,467717
6.2808,502944
6.28705,579737
6.29332,796493
6.29957,1012423
6.30582,986207
6.31208,683524
6.31833,380759
6.32458,225454
6.33083,171886
6.3371,154950
6.34335,153281
6.3496,152362
6.35587,155817
6.36212,157837
6.36837,159773
6.37463,161176
6.38088,165217
6.38713,168261
6.3934,162610
6.39965,162812
6.4059,163282
6.41217,177612
6.41842,193066
6.42467,213104
6.43093,215436
6.43718,215506
6.44343,203089
6.4497,191483
6.45595,183598
6.4622,181504
6.46845,187975
6.47472,175899
6.48097,175733
6.48722,169237
6.49348,166331
6.49973,156556
6.50598,166334
6.51225,202984
6.5185,277237
6.52475,375945
6.53102,412338
6.53727,368418
6.54352,312125
6.54978,350620
6.55603,558877
6.56228,857362
6.56855,1003123
6.5748,843524
6.58105,542558
6.58732,322630
6.59357,211090
6.59982,168843
6.60607,151722
6.61233,141914
6.61858,138460
6.62483,132678
6.6311,131105
6.63735,126408
6.6436,123503
6.64987,119641
6.65612,119089
6.66237,119749
6.66863,122866
6.67488,122398
6.68113,126489
6.6874,129222
6.69365,138111
6.6999,144931
6.70617,150514
6.71242,156039
6.71867,168847
6.72493,182519
6.73118,195181
6.73743,196649
6.74368,198073
6.74995,199918
6.7562,226269
6.76245,271182
6.76872,343233
6.77497,457547
6.78122,613839
6.78748,757927
6.79373,738200
6.79998,562763
6.80625,405034
6.8125,363593
6.81875,409996
6.82502,434310
6.83127,382874
6.83752,302715
6.84378,288849
6.85003,337125
6.85628,372751
6.86255,336213
6.8688,252200
6.87505,188673
6.8813,167936
6.88757,176191
6.89382,193502
6.90007,199071
6.90633,194061
6.91258,178764
6.91883,181818
6.9251,202064
6.93135,231391
6.9376,257295
6.94387,255241
6.95012,226817
6.95637,183044
6.96263,142284
6.96888,119079
6.97513,131140
6.9814,157818
6.98765,205115
6.9939,251681
7.00017,292152
7.00642,340015
7.01267,402898
7.01892,507440
7.02518,674348
7.03143,904382
7.03768,1175568
7.04395,1366177
7.0502,1351462
7.05645,1089153
7.06272,725916
7.06897,440778
7.07522,283944
7.08148,190793
7.08773,150531
7.09398,129779
7.10025,134419
7.1065,150860
7.11275,173013
7.11902,209318
7.12527,377697
7.13152,1007117
7.13778,2687481
7.14403,5771910
7.15028,9993862
7.15653,14619285
7.1628,19580176
7.16905,24138638
7.1753,28875428
7.18157,34075292
7.18782,39695408
7.19407,45088880
7.20033,49441176
7.20658,52498268
7.21283,53449748
7.2191,48797676
7.22535,32234732
7.2316,10876640
7.23787,2950680
7.24412,1729508
7.25037,1388414
7.25663,866816
7.26288,442114
7.26913,272791
7.2754,231675
7.28165,222517
7.2879,214046
7.29415,199790
7.30042,190277
7.30667,169490
7.31292,147253
7.31918,129607
7.32543,112581
7.33168,109239
7.33795,110118
7.3442,118438
7.35045,127557
7.35672,152865
7.36297,183691
7.36922,250667
7.37548,363662
7.38173,527176
7.38798,658397
7.39425,639446
7.4005,475278
7.40675,292339
7.41302,177111
7.41927,126936
7.42552,118483
7.43177,119851
7.43803,125617
7.44428,122660
7.45053,118987
7.4568,111543
7.46305,107630
7.4693,99298
7.47557,96616
7.48182,99186
7.48807,101313
7.49433,106705
7.50058,111596
7.50683,119885
7.5131,132502
7.51935,197392
7.5256,430650
7.53187,1026552
7.53812,1916049
7.54437,2549142
7.55063,2456874
7.55688,1819923
7.56313,1198838
7.56938,773801
7.57565,475091
7.5819,288875
7.58815,192797
7.59442,144366
7.60067,128631
7.60692,133734
7.61318,179564
7.61943,275015
7.62568,399795
7.63195,481109
7.6382,451922
7.64445,359901
7.65072,302890
7.65697,306441
7.66322,381079
7.66948,580217
7.67573,1110975
7.68198,2264273
7.68825,4314211
7.6945,7447577
7.70075,11266396
7.707,15188643
7.71327,18914282
7.71952,21631988
7.72577,23333344
7.73203,23139438
7.73828,22068690
7.74453,20010488
7.7508,16177653
7.75705,11767538
7.7633,8197010
7.76957,5899934
7.77582,4321067
7.78207,2981722
7.78833,1919698
7.79458,1134279
7.80083,601340
7.8071,299561
7.81335,168819
7.8196,125112
7.82587,112875
7.83212,108274
7.83837,115597
7.84463,143931
7.85088,181285
7.85713,232473
7.86338,287060
7.86965,311750
7.8759,297978
7.88215,291041
7.88842,383496
7.89467,656784
7.90092,1112061
7.90718,1561547
7.91343,1660518
7.91968,1432036
7.92595,1229265
7.9322,1395830
7.93845,1951809
7.94472,2600540
7.95097,3202398
7.95722,3590440
7.96348,3680293
7.96973,3284124
7.97598,2484153
7.98225,1618964
7.9885,1002408
7.99475,584922
8.001,336051
8.00727,212786
8.01352,171206
8.01977,160616
8.02603,156130
8.03228,147137
8.03853,138938
8.0448,143536
8.05105,186950
8.0573,259928
8.06357,314513
8.06982,310463
8.07607,273066
8.08233,284555
8.08858,379332
8.09483,546947
8.1011,782154
8.10735,1087736
8.1136,1306374
8.11987,1238208
8.12612,1011060
8.13237,1069593
8.13862,2056836
8.14488,4152573
8.15113,6377131
8.15738,7200689
8.16365,5764213
8.1699,3233030
8.17615,1328343
8.18242,501892
8.18867,256353
8.19492,201889
8.20118,186988
8.20743,188451
8.21368,215290
8.21995,271536
8.2262,329855
8.23245,359008
8.23872,333045
8.24497,264137
8.25122,196688
8.25748,157752
8.26373,153674
8.26998,258440
8.27623,744282
8.2825,2353986
8.28875,6204249
8.295,12808705
8.30127,20834616
8.30752,28327692
8.31377,32951200
8.32003,30631696
8.32628,19804982
8.33253,7056789
8.3388,1782551
8.34505,549453
8.3513,307269
8.35757,222861
8.36382,178658
8.37007,174764
8.37633,201290
8.38258,249846
8.38883,294831
8.3951,352882
8.40135,418468
8.4076,445460
8.41385,444445
8.42012,397304
8.42637,367325
8.43262,338032
8.43888,333262
8.44513,365002
8.45138,423542
8.45765,521367
8.4639,649099
8.47015,796972
8.47642,848197
8.48267,755090
8.48892,593593
8.49518,463979
8.50143,381815
8.50768,337115
8.51395,319296
8.5202,336329
8.52645,413206
8.53272,590112
8.53897,904742
8.54522,1343900
8.55147,1701297
8.55773,1685466
8.56398,1293829
8.57023,837747
8.5765,537147
8.58275,446052
8.589,477790
8.59527,508376
8.60152,490975
8.60777,435746
8.61403,376616
8.62028,363004
8.62653,389306
8.6328,482127
8.63905,614090
8.6453,715765
8.65157,723331
8.65782,639985
8.66407,531989
8.67033,401914
8.67658,292825
8.68283,219654
8.68908,180743
8.69535,162318
8.7016,158117
8.70785,170743
8.71412,207263
8.72037,263855
8.72662,416881
8.73288,768488
8.73913,1406243
8.74538,2158851
8.75165,2585122
8.7579,2283083
8.76415,1566144
8.77042,944194
8.77667,574124
8.78292,409431
8.78918,308641
8.79543,261594
8.80168,243188
8.80795,228514
8.8142,231517
8.82045,219221
8.8267,225027
8.83297,272513
8.83922,344717
8.84547,383163
8.85173,364876
8.85798,287635
8.86423,208743
8.8705,172570
8.87675,163087
8.883,167914
8.88927,172682
8.89552,181770
8.90177,177375
8.90803,173563
8.91428,165792
8.92053,164249
8.9268,156316
8.93305,145265
8.9393,153367
8.94557,164447
8.95182,208939
8.95807,253352
8.96432,282283
8.97058,276618
8.97683,241544
8.98308,229480
8.98935,246687
8.9956,298672
9.00185,361178
9.00812,430366
9.01437,445278
9.02062,380476
9.02688,273819
9.03313,181595
9.03938,137000
9.04565,121199
9.0519,115731
9.05815,117423
9.06442,110587
9.07067,114965
9.07692,120225
9.08318,126738
9.08943,129326
9.09568,133262
9.10193,135365
9.1082,139044
9.11445,150131
9.1207,192646
9.12697,265260
9.13322,421441
9.13947,913542
9.14573,2521213
9.15198,6243305
9.15823,12488046
9.1645,19955296
9.17075,25542428
9.177,26082304
9.18327,19086470
9.18952,8139274
9.19577,2024878
9.20203,490811
9.20828,251932
9.21453,221249
9.2208,216130
9.22705,231589
9.2333,261484
9.23955,287012
9.24582,305328
9.25207,299776
9.25832,283645
9.26458,297301
9.27083,329385
9.27708,325492
9.28335,296513
9.2896,277903
9.29585,336840
9.30212,465710
9.30837,617326
9.31462,646266
9.32088,590772
9.32713,581375
9.33338,786872
9.33965,1373256
9.3459,2465476
9.35215,3768469
9.35842,4549141
9.36467,4089842
9.37092,2588593
9.37717,1224308
9.38343,516443
9.38968,277746
9.39593,237758
9.4022,240440
9.40845,243862
9.4147,231376
9.42097,218314
9.42722,204409
9.43347,201962
9.43973,200966
9.44598,222173
9.45223,293085
9.4585,430867
9.46475,618821
9.471,787831
9.47727,839397
9.48352,723069
9.48977,530991
9.49603,367490
9.50228,291323
9.50853,260152
9.51478,255877
9.52105,234837
9.5273,216716
9.53355,196987
9.53982,196558
9.54607,221389
9.55232,259175
9.55858,328197
9.56483,415624
9.57108,513494
9.57735,586698
9.5836,563652
9.58985,507105
9.59612,537062
9.60237,797934
9.60862,1414255
9.61488,2314062
9.62113,3389274
9.62738,4622985
9.63365,5951813
9.6399,7128709
9.64615,8334631
9.6524,9657876
9.65867,10858518
9.66492,12169652
9.67117,13421877
9.67743,14304608
9.68368,15438752
9.68993,16469325
9.6962,17881050
9.70245,20319978
9.7087,23860726
9.71497,29322528
9.72122,35316728
9.72747,41480424
9.73373,46060348
9.73998,47062448
9.74623,42081000
9.7525,31567198
9.75875,23291214
9.765,20425290
9.77127,20629352
9.77752,22315310
9.78377,25764714
9.79002,28967128
9.79628,30564670
9.80253,29604732
9.80878,25887910
9.81505,22140318
9.8213,20706718
9.82755,19882920
9.83382,19615414
9.84007,18455040
9.84632,9728008
9.85258,1466212
9.85883,360003
9.86508,269596
9.87135,234568
9.8776,214110
9.88385,221338
9.89012,272696
9.89637,362852
9.90262,439231
9.90888,477680
9.91513,516102
9.92138,622475
9.92763,821706
9.9339,1009064
9.94015,1156509
9.9464,1352270
9.95267,1858230
9.95892,2415974
9.96517,2525373
9.97143,1862787
9.97768,1045626
9.98393,498018
9.9902,260376
9.99645,185783
10.0027,174560
10.009,176338
10.0152,177396
10.0215,177742
10.0277,172323
10.034,175194
10.0402,210747
10.0465,287222
10.0528,419948
10.059,541216
10.0653,606260
10.0715,559713
10.0778,477135
10.084,418004
10.0903,373883
10.0965,345187
10.1028,405115
10.1091,733237
10.1153,1552306
10.1216,2837829
10.1278,3810039
10.1341,3596919
10.1403,2455715
10.1466,1594567
10.1528,2130530
10.1591,4515298
10.1654,7857514
10.1716,10124073
10.1779,9571549
10.1841,6533565
10.1904,3931698
10.1966,4017075
10.2029,6976405
10.2091,11737086
10.2154,17003646
10.2216,22546210
10.2279,26662470
10.2342,29565128
10.2404,29738594
10.2467,24474420
10.2529,15129788
10.2592,6041383
10.2654,1805487
10.2717,609919
10.2779,370122
10.2842,310325
10.2905,288164
10.2967,278462
10.303,258945
10.3092,248205
10.3155,230721
10.3217,232489
10.328,233204
10.3342,231682
10.3405,212455
10.3468,183730
10.353,172654
10.3593,188589
10.3655,230054
10.3718,277196
10.378,303669
10.3843,298625
10.3905,273216
10.3968,237817
10.4031,203520
10.4093,226965
10.4156,379228
10.4218,794712
10.4281,1584992
10.4343,2516172
10.4406,2914999
10.4468,2403463
10.4531,1474439
10.4594,784986
10.4656,648920
10.4719,1295253
10.4781,2945704
10.4844,5165687
10.4906,6671004
10.4969,6118469
10.5031,3976869
10.5094,1855486
10.5156,679631
10.5219,245032
10.5282,132850
10.5344,113272
10.5407,114689
10.5469,141759
10.5532,193273
10.5594,259026
10.5657,347414
10.5719,548814
10.5782,1158516
10.5845,3154432
10.5907,8409915
10.597,18760686
10.6032,33576816
10.6095,47689912
10.6157,58832276
10.622,65522488
10.6282,68079376
10.6345,64787696
10.6408,51803356
10.647,28763254
10.6533,9876070
10.6595,2513754
10.6658,624719
10.672,250761
10.6783,180312
10.6845,173513
10.6908,187160
10.6971,288651
10.7033,536746
10.7096,951294
10.7158,1290351
10.7221,1285439
10.7283,955561
10.7346,576275
10.7408,329486
10.7471,227370
10.7533,201711
10.7596,204691
10.7659,222055
10.7721,238262
10.7784,244299
10.7846,239111
10.7909,238530
10.7971,234433
10.8034,221305
10.8096,211439
10.8159,214341
10.8222,213030
10.8284,207348
10.8347,183514
10.8409,162016
10.8472,141987
10.8534,130094
10.8597,131263
10.8659,148533
10.8722,175060
10.8785,200703
10.8847,201195
10.891,180545
10.8972,148660
10.9035,142486
10.9097,143798
10.916,157598
10.9222,185963
10.9285,230214
10.9348,296453
10.941,389202
10.9473,471489
10.9535,482837
10.9598,402084
10.966,288702
10.9723,205470
10.9785,199018
10.9848,285926
10.9911,483638
10.9973,709269
11.0036,790351
11.0098,666106
11.0161,445087
11.0223,282182
11.0286,223634
11.0348,243778
11.0411,332274
11.0473,486722
11.0536,690890
11.0599,783203
11.0661,686609
11.0724,462192
11.0786,262251
11.0849,168815
11.0911,133081
11.0974,129688
11.1036,131153
11.1099,133395
11.1162,133863
11.1224,141478
11.1287,145435
11.1349,152997
11.1412,170361
11.1474,191952
11.1537,215458
11.1599,225534
11.1662,214805
11.1725,189718
11.1787,162182
11.185,135894
11.1912,123951
11.1975,127378
11.2037,144478
11.21,180229
11.2162,222802
11.2225,263762
11.2288,259412
11.235,241193
11.2413,233271
11.2475,227826
11.2538,233755
11.26,238251
11.2663,249499
11.2725,276199
11.2788,351959
11.2851,449917
11.2913,561844
11.2976,670520
11.3038,710370
11.3101,631150
11.3163,573720
11.3226,727932
11.3288,1396955
11.3351,2567788
11.3413,3653784
11.3476,3762621
11.3539,2668332
11.3601,1332548
11.3664,568929
11.3726,274911
11.3789,198777
11.3851,184914
11.3914,197276
11.3976,208439
11.4039,199675
11.4102,180973
11.4164,159670
11.4227,149877
11.4289,144840
11.4352,144877
11.4414,140370
11.4477,134899
11.4539,131309
11.4602,127958
11.4665,142032
11.4727,157919
11.479,182755
11.4852,222706
11.4915,264256
11.4977,336843
11.504,406032
11.5102,447408
11.5165,427750
11.5228,347172
11.529,264647
11.5353,219181
11.5415,217361
11.5478,244620
11.554,246322
11.5603,237943
11.5665,241304
11.5728,243908
11.579,241529
11.5853,235799
11.5916,234843
11.5978,222336
11.6041,220162
11.6103,220386
11.6166,215463
11.6228,202107
11.6291,171737
11.6353,151787
11.6416,139135
11.6479,137703
11.6541,143469
11.6604,144600
11.6666,141830
11.6729,138645
11.6791,150640
11.6854,249127
11.6916,603093
11.6979,1500956
11.7042,2996256
11.7104,4202963
11.7167,4087908
11.7229,2739673
11.7292,1390424
11.7354,669888
11.7417,443652
11.7479,372398
11.7542,312824
11.7605,273239
11.7667,246673
11.773,233721
11.7792,214836
11.7855,184586
11.7917,157465
11.798,139130
11.8042,138406
11.8105,157745
11.8168,209126
11.823,267619
11.8293,317775
11.8355,321908
11.8418,283531
11.848,253951
11.8543,225638
11.8605,214377
11.8668,223770
11.873,229860
11.8793,235835
11.8856,246877
11.8918,279516
11.8981,301878
11.9043,306600
11.9106,302065
11.9168,289130
11.9231,330878
11.9293,429392
11.9356,542037
11.9419,547124
11.9481,440061
11.9544,295165
11.9606,189831
11.9669,154640
11.9731,156097
11.9794,165969
11.9856,179293
11.9919,200446
11.9982,248738
12.0044,356535
12.0107,464420
12.0169,520627
12.0232,462105
12.0294,360399
12.0357,270872
12.0419,230670
12.0482,221062
12.0545,218383
12.0607,212861
12.067,197803
12.0732,180355
12.0795,178683
12.0857,180697
12.092,183872
12.0982,195456
12.1045,192836
12.1108,187742
12.117,192270
12.1233,222547
12.1295,280378
12.1358,346397
12.142,474401
12.1483,789618
12.1545,1691217
12.1608,3461420
12.167,5566266
12.1733,6720463
12.1796,5968779
12.1858,3827002
12.1921,2290243
12.1983,1966803
12.2046,2243374
12.2108,2243892
12.2171,1637864
12.2233,880199
12.2296,402353
12.2359,224502
12.2421,192426
12.2484,222166
12.2546,287139
12.2609,337319
12.2671,351834
12.2734,308540
12.2796,249469
12.2859,207528
12.2922,207727
12.2984,206787
12.3047,197986
12.3109,184531
12.3172,173221
12.3234,164452
12.3297,157216
12.3359,157857
12.3422,158819
12.3485,159855
12.3547,182414
12.361,216533
12.3672,255282
12.3735,265295
12.3797,257652
12.386,219412
12.3922,192467
12.3985,171133
12.4048,160635
12.411,155958
12.4173,156545
12.4235,157110
12.4298,161236
12.436,169859
12.4423,175070
12.4485,172406
12.4548,176604
12.461,192191
12.4673,210789
12.4736,232994
12.4798,247187
12.4861,241275
12.4923,218550
12.4986,186520
12.5048,170343
12.5111,183930
12.5173,238254
12.5236,342605
12.5299,454410
12.5361,500148
12.5424,469590
12.5486,403750
12.5549,340058
12.5611,322612
12.5674,369622
12.5736,429506
12.5799,450526
12.5862,395393
12.5924,322544
12.5987,304509
12.6049,414268
12.6112,697928
12.6174,1120301
12.6237,1447485
12.6299,1417831
12.6362,1054294
12.6425,651926
12.6487,409554
12.655,342181
12.6612,321187
12.6675,307252
12.6737,271241
12.68,242683
12.6862,224384
12.6925,199433
12.6987,184701
12.705,182440
12.7113,184096
12.7175,191518
12.7238,213299
12.73,344195
12.7363,778149
12.7425,1845897
12.7488,3510922
12.755,5120930
12.7613,5879546
12.7676,5229139
12.7738,3895772
12.7801,3029494
12.7863,2760697
12.7926,2650469
12.7988,2257378
12.8051,1635618
12.8113,986573
12.8176,579023
12.8239,420231
12.8301,355873
12.8364,356377
12.8426,406253
12.8489,484206
12.8551,550526
12.8614,514046
12.8676,432373
12.8739,323547
12.8802,253840
12.8864,215970
12.8927,193572
12.8989,186859
12.9052,184436
12.9114,205369
12.9177,235280
12.9239,306236
12.9302,434163
12.9365,662222
12.9427,941521
12.949,1111139
12.9552,1043743
12.9615,802972
12.9677,579210
12.974,476140
12.9802,497332
12.9865,575036
12.9927,615362
12.999,566286
13.0053,451883
13.0115,346821
13.0178,278915
13.024,239739
13.0303,233618
13.0365,231710
13.0428,231520
13.049,223461
13.0553,209915
13.0616,199458
13.0678,191215
13.0741,197438
13.0803,217944
13.0866,250545
13.0928,314092
13.0991,436296
13.1053,587131
13.1116,681927
13.1179,648176
13.1241,525181
13.1304,395056
13.1366,307076
13.1429,271138
13.1491,260939
13.1554,262835
13.1616,275723
13.1679,291884
13.1742,314872
13.1804,368942
13.1867,458030
13.1929,550285
13.1992,569864
13.2054,523317
13.2117,427432
13.2179,352945
13.2242,349957
13.2305,407295
13.2367,571430
13.243,1029027
13.2492,1985860
13.2555,3272424
13.2617,4325675
13.268,4454465
13.2742,3433027
13.2805,2070452
13.2867,1143651
13.293,827596
13.2993,807098
13.3055,765456
13.3118,599745
13.318,414221
13.3243,310463
13.3305,280467
13.3368,332673
13.343,446142
13.3493,592164
13.3556,735578
13.3618,768841
13.3681,784888
13.3743,906794
13.3806,1349699
13.3868,2290983
13.3931,3701843
13.3993,5207136
13.4056,6174853
13.4119,5835934
13.4181,4339845
13.4244,2564425
13.4306,1398062
13.4369,935737
13.4431,922664
13.4494,999341
13.4556,1055278
13.4619,1095399
13.4682,1205988
13.4744,1443559
13.4807,1625154
13.4869,1580531
13.4932,1260739
13.4994,853219
13.5057,543098
13.5119,402525
13.5182,343644
13.5244,330863
13.5307,329029
13.537,340250
13.5432,353897
13.5495,378247
13.5557,385707
13.562,411055
13.5682,450237
13.5745,503540
13.5807,590702
13.587,739957
13.5933,949290
13.5995,1134804
13.6058,1206139
13.612,1163775
13.6183,1067030
13.6245,958886
13.6308,892720
13.637,861574
13.6433,843093
13.6496,796366
13.6558,717883
13.6621,672302
13.6683,654752
13.6746,648556
13.6808,664232
13.6871,617000
13.6933,542928
13.6996,485343
13.7059,444102
13.7121,435080
13.7184,424342
13.7246,437468
13.7309,480324
13.7371,590965
13.7434,769205
13.7496,947673
13.7559,1005408
13.7622,906317
13.7684,705037
13.7747,528150
13.7809,426925
13.7872,377098
13.7934,381764
13.7997,451715
13.8059,612196
13.8122,842806
13.8184,1055535
13.8247,1136545
13.831,1016016
13.8372,849959
13.8435,743579
13.8497,767615
13.856,857726
13.8622,941139
13.8685,913531
13.8747,755328
13.881,546013
13.8873,398802
13.8935,316556
13.8998,297661
13.906,291827
13.9123,305326
13.9185,338429
13.9248,372063
13.931,428341
13.9373,497052
13.9436,576957
13.9498,587968
13.9561,539524
13.9623,432541
13.9686,371680
13.9748,366625
13.9811,409844
13.9873,467595
13.9936,499771
13.9999,518834
14.0061,527401
14.0124,571989
14.0186,652312
14.0249,719911
14.0311,714742
14.0374,635048
14.0436,508449
14.0499,387234
14.0562,317568
14.0624,309012
14.0687,327652
14.0749,406132
14.0812,547433
14.0874,717817
14.0937,847840
14.0999,874592
14.1062,800670
14.1124,690670
14.1187,574581
14.125,482891
14.1312,406221
14.1375,357024
14.1437,332084
14.15,330871
14.1562,329500
14.1625,335583
14.1687,347089
14.175,360650
14.1813,361377
14.1875,344976
14.1938,325044
14.2,302402
14.2063,283865
14.2125,275161
14.2188,267522
14.225,278344
14.2313,292833
14.2376,316856
14.2438,351463
14.2501,387878
14.2563,399009
14.2626,398136
14.2688,390259
14.2751,386875
14.2813,395589
14.2876,399931
14.2939,393410
14.3001,395216
14.3064,395269
14.3126,396763
14.3189,385789
14.3251,397611
14.3314,434807
14.3376,553502
14.3439,756319
14.3501,1013256
14.3564,1219413
14.3627,1317946
14.3689,1250847
14.3752,1024471
14.3814,759223
14.3877,543948
14.3939,425954
14.4002,372158
14.4064,353084
14.4127,328059
14.419,318191
14.4252,302851
14.4315,296347
14.4377,287336
14.444,274307
14.4502,268600
14.4565,257434
14.4627,263728
14.469,272304
14.4753,304135
14.4815,347743
14.4878,395748
14.494,416107
14.5003,421735
14.5065,408693
14.5128,395462
14.519,417642
14.5253,528872
14.5316,901155
14.5378,1703760
14.5441,2880731
14.5503,3850844
14.5566,3973894
14.5628,3131276
14.5691,2022274
14.5753,1107563
14.5816,663901
14.5879,523987
14.5941,544915
14.6004,587009
14.6066,576950
14.6129,486199
14.6191,392262
14.6254,318469
14.6316,297751
14.6379,375447
14.6441,631209
14.6504,1111613
14.6567,1652434
14.6629,2028542
14.6692,2003664
14.6754,1501540
14.6817,954153
14.6879,583292
14.6942,401833
14.7004,329078
14.7067,283601
14.713,266619
14.7192,263268
14.7255,274320
14.7317,288774
14.738,285627
14.7442,275374
14.7505,270264
14.7567,271071
14.763,281090
14.7693,319008
14.7755,412491
14.7818,561211
14.788,683580
14.7943,748650
14.8005,736454
14.8068,693179
14.813,636501
14.8193,551184
14.8256,438614
14.8318,330441
14.8381,266536
14.8443,264950
14.8506,327489
14.8568,442771
14.8631,613433
14.8693,777086
14.8756,812471
14.8819,685795
14.8881,515925
14.8944,425417
14.9006,450040
14.9069,536525
14.9131,630930
14.9194,621342
14.9256,546135
14.9319,441847
14.9381,385533
14.9444,417542
14.9507,535445
14.9569,639690
14.9632,645428
14.9694,559300
14.9757,461036
14.9819,387441
14.9882,352312
14.9944,326371
15.0007,316880
15.007,308398
15.0132,318785
15.0195,354042
15.0257,411138
15.032,534651
15.0382,804357
15.0445,1303677
15.0507,1905768
15.057,2280845
15.0633,2042501
15.0695,1422640
15.0758,822391
15.082,441541
15.0883,287539
15.0945,237231
15.1008,233903
15.107,261626
15.1133,319186
15.1196,362017
15.1258,379977
15.1321,377135
15.1383,362738
15.1446,382950
15.1508,439115
15.1571,468853
15.1633,493525
15.1696,520021
15.1758,618359
15.1821,771638
15.1884,894662
15.1946,872255
15.2009,713392
15.2071,545357
15.2134,413536
15.2196,342037
15.2259,303273
15.2321,283497
15.2384,273245
15.2447,263178
15.2509,254971
15.2572,264409
15.2634,287591
15.2697,379734
15.2759,607052
15.2822,1001950
15.2884,1434979
15.2947,1732807
15.301,1797815
15.3072,1755891
15.3135,1694674
15.3197,1616834
15.326,1531332
15.3322,1443024
15.3385,1348560
15.3447,1258298
15.351,1188673
15.3573,1154252
15.3635,1117269
15.3698,1017297
15.376,890261
15.3823,799732
15.3885,750934
15.3948,734102
15.401,714748
15.4073,725159
15.4136,775505
15.4198,881291
15.4261,968784
15.4323,983540
15.4386,933302
15.4448,804942
15.4511,703392
15.4573,644293
15.4636,632115
15.4698,680787
15.4761,719625
15.4824,750786
15.4886,683153
15.4949,596250
15.5011,549852
15.5074,581724
15.5136,741058
15.5199,997517
15.5261,1322009
15.5324,1543717
15.5387,1428609
15.5449,1103277
15.5512,741102
15.5574,518738
15.5637,403205
15.5699,352766
15.5762,322300
15.5824,317766
15.5887,329809
15.595,374585
15.6012,449573
15.6075,557201
15.6137,638341
15.62,652077
15.6262,581636
15.6325,478337
15.6387,433891
15.645,425035
15.6513,442897
15.6575,468556
15.6638,465761
15.67,454648
15.6763,455575
15.6825,473121
15.6888,512246
15.695,575478
15.7013,717835
15.7076,885301
15.7138,975384
15.7201,889295
15.7263,691157
15.7326,480057
15.7388,349354
15.7451,295391
15.7513,266768
15.7576,258657
15.7638,263368
15.7701,274980
15.7764,285432
15.7826,285492
15.7889,302211
15.7951,331672
15.8014,374594
15.8076,408093
15.8139,425302
15.8201,404896
15.8264,405809
15.8327,472818
15.8389,598081
15.8452,731616
15.8514,734191
15.8577,596034
15.8639,406863
15.8702,300437
15.8764,268026
15.8827,297749
15.889,351417
15.8952,414163
15.9015,451862
15.9077,459817
15.914,433024
15.9202,393779
15.9265,359788
15.9327,387670
15.939,461227
15.9453,559180
15.9515,627046
15.9578,689151
15.964,710844
15.9703,722143
15.9765,686041
15.9828,625618
15.989,557226
15.9953,530664
16.0016,563255
16.0078,578082
16.0141,553180
16.0203,509501
16.0266,475883
16.0328,483479
16.0391,560241
16.0453,726349
16.0516,945073
16.0578,1094816
16.0641,1083425
16.0704,904668
16.0766,658184
16.0829,468468
16.0891,409794
16.0954,476483
16.1016,696590
16.1079,1058243
16.1141,1415866
16.1204,1493764
16.1267,1197572
16.1329,797517
16.1392,489509
16.1454,347248
16.1517,304035
16.1579,320351
16.1642,378536
16.1704,490895
16.1767,645245
16.183,724976
16.1892,704281
16.1955,587100
16.2017,467023
16.208,398660
16.2142,390581
16.2205,391124
16.2267,377935
16.233,376415
16.2392,406289
16.2455,473865
16.2518,631313
16.258,985379
16.2643,1769002
16.2705,3082208
16.2768,4629053
16.283,5717137
16.2893,5289203
16.2955,3462167
16.3018,1695299
16.3081,798841
16.3143,487309
16.3206,409147
16.3268,394343
16.3331,411945
16.3393,450812
16.3456,468602
16.3518,467055
16.3581,442376
16.3644,410211
16.3706,378975
16.3769,346478
16.3831,332388
16.3894,331976
16.3956,326500
16.4019,322848
16.4081,316314
16.4144,331196
16.4206,369494
16.4269,420262
16.4332,464548
16.4394,523975
16.4457,601035
16.4519,765288
16.4582,969015
16.4644,1144043
16.4707,1274656
16.4769,1256477
16.4832,1087524
16.4895,796615
16.4957,565068
16.502,437339
16.5082,405397
16.5145,427264
16.5207,458186
16.527,452418
16.5332,393637
16.5395,346962
16.5458,319246
16.552,344012
16.5583,402543
16.5645,483094
16.5708,514017
16.577,484601
16.5833,417030
16.5895,373238
16.5958,372932
16.602,401805
16.6083,430259
16.6146,446829
16.6208,462260
16.6271,478047
16.6333,462544
16.6396,433939
16.6458,414334
16.6521,375803
16.6583,333177
16.6646,311067
16.6709,303874
16.6771,317860
16.6834,364294
16.6896,444289
16.6959,537681
16.7021,590918
16.7084,552967
16.7146,488670
16.7209,436299
16.7272,429843
16.7334,455629
16.7397,529512
16.7459,670083
16.7522,869217
16.7584,1160969
16.7647,1535686
16.7709,1961530
16.7772,2503099
16.7834,3138459
16.7897,3804735
16.796,4169464
16.8022,4424237
16.8085,4974174
16.8147,6998642
16.821,11033017
16.8272,17592068
16.8335,25211632
16.8397,33334874
16.846,40487668
16.8523,46853732
16.8585,48822620
16.8648,42320424
16.871,24761396
16.8773,9688698
16.8835,3045637
16.8898,938199
16.896,515070
16.9023,430192
16.9086,412494
16.9148,482311
16.9211,721790
16.9273,1248737
16.9336,2059473
16.9398,2839464
16.9461,2932252
16.9523,2488521
16.9586,1699373
16.9649,1038126
16.9711,625962
16.9774,462882
16.9836,423089
16.9899,420325
16.9961,402614
17.0024,372227
17.0086,336045
17.0149,305697
17.0211,285792
17.0274,269244
17.0337,258071
17.0399,258083
17.0462,270777
17.0524,353469
17.0587,647733
17.065,1527240
17.0712,3390028
17.0774,5890051
17.0837,7703670
17.09,7680505
17.0962,5954044
17.1025,4065354
17.1087,2751289
17.115,2036726
17.1212,1524733
17.1275,1098929
17.1337,835205
17.14,703470
17.1463,649569
17.1525,614156
17.1588,610105
17.165,634864
17.1713,696984
17.1775,847197
17.1838,1161546
17.19,1859227
17.1963,3302289
17.2026,5801552
17.2088,8447967
17.2151,9853832
17.2213,8436095
17.2276,5331086
17.2338,2629777
17.2401,1262652
17.2464,823522
17.2526,728287
17.2588,765701
17.2651,829912
17.2714,877918
17.2776,872686
17.2839,841032
17.2901,769762
17.2964,712391
17.3027,661786
17.3089,623234
17.3151,592322
17.3214,616071
17.3277,755353
17.3339,1022656
17.3402,1329323
17.3464,1476490
17.3527,1391073
17.359,1100674
17.3652,765887
17.3714,554539
17.3777,466863
17.384,421533
17.3902,391456
17.3965,349894
17.4027,308317
17.409,293798
17.4152,294127
17.4215,304240
17.4278,326449
17.434,403585
17.4403,537344
17.4465,683437
17.4528,808308
17.459,854998
17.4653,961053
17.4715,1298644
17.4778,2221431
17.4841,4426371
17.4903,9008707
17.4966,16573811
17.5028,27095568
17.5091,38221184
17.5153,46812056
17.5216,50708428
17.5278,45329528
17.5341,28811810
17.5404,12108238
17.5466,6356626
17.5528,5993638
17.5591,6366511
17.5654,6402835
17.5716,5540705
17.5779,4335516
17.5841,3504144
17.5904,4018093
17.5967,6811980
17.6029,12244635
17.6092,20194668
17.6154,28884352
17.6217,35505576
17.6279,37874772
17.6342,33836912
17.6404,22679960
17.6467,11342673
17.653,5595524
17.6592,4543493
17.6655,5031489
17.6717,5282225
17.678,5031363
17.6842,4633554
17.6905,4669788
17.6967,4996773
17.703,4951323
17.7092,4130342
17.7155,3307440
17.7218,2810404
17.728,2406769
17.7343,1970023
17.7405,1540106
17.7468,1379596
17.753,1954987
17.7593,4073126
17.7655,8178076
17.7718,14457865
17.7781,22634010
17.7843,33971604
17.7906,47025300
17.7968,59532444
17.8031,67196592
17.8093,71243416
17.8156,72648672
17.8218,71665976
17.8281,68881848
17.8344,64260056
17.8406,61547188
17.8469,69922320
17.8531,44791880
17.8594,29246310
17.8656,32845416
17.8719,36165776
17.8781,38450044
17.8844,31721410
17.8907,17774852
17.8969,7411529
17.9032,4786308
17.9094,6444934
17.9157,10765417
17.9219,16602376
17.9282,22618292
17.9344,27159210
17.9407,25291168
17.9469,15613909
17.9532,6024571
17.9595,2782796
17.9657,3988489
17.972,8769279
17.9782,17928582
17.9845,30829364
17.9907,43261020
17.997,52236056
18.0032,52328296
18.0095,39176476
18.0158,16517348
18.022,4351549
18.0283,1907901
18.0345,2235263
18.0408,3067593
18.047,3218049
18.0533,2603865
18.0595,1602421
18.0658,926722
18.0721,675516
18.0783,623813
18.0846,630061
18.0908,667258
18.0971,749220
18.1033,1016350
18.1096,1611674
18.1158,2557742
18.1221,3435591
18.1284,3679587
18.1346,3028452
18.1409,2061112
18.1471,1323625
18.1534,924355
18.1596,759528
18.1659,756486
18.1721,941381
18.1784,1410836
18.1847,2140069
18.1909,2696461
18.1972,2610315
18.2034,2077011
18.2097,1477940
18.2159,1084794
18.2222,884520
18.2284,771263
18.2347,719862
18.2409,744631
18.2472,796497
18.2535,848122
18.2597,844185
18.266,766388
18.2722,672736
18.2785,671222
18.2847,977542
18.291,1791067
18.2972,3170323
18.3035,4468559
18.3098,4727092
18.316,3799480
18.3223,2432395
18.3285,1369913
18.3348,878365
18.341,707277
18.3473,703174
18.3535,723478
18.3598,690949
18.3661,618265
18.3723,534999
18.3786,470844
18.3848,430854
18.3911,426870
18.3973,430981
18.4036,437139
18.4098,441135
18.4161,430594
18.4224,429777
18.4286,435446
18.4349,448791
18.4411,456884
18.4474,472311
18.4536,469220
18.4599,425350
18.4661,395301
18.4724,390743
18.4787,394015
18.4849,426119
18.4912,511653
18.4974,861093
18.5037,1861391
18.5099,3816888
18.5162,6185207
18.5224,7411647
18.5287,6355439
18.5349,4086496
18.5412,1965823
18.5475,906474
18.5537,585961
18.56,530454
18.5662,540016
18.5725,601948
18.5787,902936
18.585,1679657
18.5912,2780689
18.5975,3535149
18.6038,3538641
18.61,2737790
18.6163,1805155
18.6225,1217267
18.6288,893485
18.635,780264
18.6413,717589
18.6475,670476
18.6538,635925
18.6601,601147
18.6663,547130
18.6726,513012
18.6788,503719
18.6851,521297
18.6913,563370
18.6976,733951
18.7038,1335192
18.7101,3142551
18.7164,7125267
18.7226,13711868
18.7289,21619080
18.7351,28620720
18.7414,29187612
18.7476,21222352
18.7539,8885722
18.7601,2614645
18.7664,919158
18.7726,554309
18.7789,436503
18.7852,400141
18.7914,393071
18.7977,399373
18.8039,408592
18.8102,411676
18.8164,450153
18.8227,546835
18.8289,661169
18.8352,727136
18.8415,693357
18.8477,601287
18.854,524441
18.8602,557215
18.8665,796792
18.8727,1282546
18.879,1804449
18.8852,1952930
18.8915,1521120
18.8978,963606
18.904,615927
18.9103,499402
18.9165,478048
18.9228,480896
18.929,451194
18.9353,433677
18.9415,414046
18.9478,388197
18.9541,380513
18.9603,386015
18.9666,413420
18.9728,446360
18.9791,447928
18.9853,455973
18.9916,510465
18.9978,769115
19.0041,1350759
19.0104,2198525
19.0166,2811202
19.0229,2692406
19.0291,2055767
19.0354,1506111
19.0416,1297008
19.0479,1164640
19.0541,945631
19.0604,685684
19.0666,476074
19.0729,351602
19.0792,293016
19.0854,272869
19.0917,267269
19.0979,272487
19.1042,271400
19.1104,261620
19.1167,260797
19.1229,260301
19.1292,263679
19.1355,267606
19.1417,266633
19.148,262064
19.1542,276341
19.1605,318503
19.1667,381842
19.173,464694
19.1792,499658
19.1855,461483
19.1918,388276
19.198,311885
19.2043,265586
19.2105,246403
19.2168,241184
19.223,256417
19.2293,309469
19.2355,381611
19.2418,441267
19.248,463216
19.2543,421913
19.2606,348466
19.2668,299583
19.2731,263215
19.2793,252027
19.2856,243173
19.2918,241167
19.2981,250149
19.3043,268674
19.3106,291405
19.3169,300226
19.3231,307033
19.3294,348565
19.3356,399945
19.3419,460337
19.3481,480476
19.3544,510620
19.3606,704534
19.3669,1388558
19.3732,2869823
19.3794,4908931
19.3857,6577380
19.3919,6654719
19.3982,4870056
19.4044,2526564
19.4107,1006428
19.4169,437814
19.4232,279767
19.4294,257846
19.4357,273298
19.442,301178
19.4482,327075
19.4545,340752
19.4607,307953
19.467,268136
19.4732,246899
19.4795,230176
19.4857,224231
19.492,221481
19.4983,231494
19.5045,246689
19.5108,260719
19.517,273613
19.5233,280794
19.5295,284864
19.5358,291515
19.5421,285201
19.5483,269315
19.5546,269781
19.5608,276282
19.5671,274777
19.5733,272605
19.5796,264718
19.5858,272508
19.5921,291616
19.5983,329160
19.6046,361495
19.6108,439810
19.6171,766787
19.6234,1975059
19.6296,4759799
19.6359,9288897
19.6421,13716862
19.6484,14821077
19.6546,11967690
19.6609,7271197
19.6671,3321670
19.6734,1480793
19.6797,886221
19.6859,653693
19.6922,516967
19.6984,435281
19.7047,415370
19.7109,407992
19.7172,393379
19.7235,381600
19.7297,384833
19.736,379907
19.7422,371401
19.7485,358196
19.7547,353191
19.761,348445
19.7672,360099
19.7735,380887
19.7798,412327
19.786,430699
19.7922,466860
19.7985,532915
19.8048,617569
19.811,672304
19.8173,631325
19.8235,519895
19.8298,443179
19.8361,394837
19.8423,384083
19.8485,385589
19.8548,397476
19.8611,417850
19.8673,424036
19.8736,435624
19.8798,429550
19.8861,436130
19.8923,441460
19.8986,444426
19.9049,452951
19.9111,461901
19.9174,459158
19.9236,438951
19.9299,407263
19.9361,409840
19.9424,509719
19.9486,890321
19.9549,1914947
19.9612,3783551
19.9674,6551508
19.9737,9367356
19.9799,10780085
19.9862,8970946
19.9924,4909344
19.9987,2082064
20.0049,979556
20.0112,671050
20.0175,562276
20.0237,501151
20.0299,454309
20.0362,423271
20.0425,403408
20.0487,386018
20.055,394478
20.0612,428660
20.0675,472968
20.0738,493321
20.08,459620
20.0863,405543
20.0925,369808
20.0988,349495
20.105,333887
20.1113,336542
20.1175,345015
20.1238,348458
20.1301,342369
20.1363,344284
20.1426,340991
20.1488,331715
20.1551,309174
20.1613,278671
20.1676,267862
20.1738,273099
20.1801,291137
20.1863,333680
20.1926,423722
20.1989,596864
20.2051,817216
20.2114,973882
20.2176,955111
20.2239,795996
20.2301,617646
20.2364,563203
20.2426,695825
20.2489,951141
20.2552,1170057
20.2614,1178608
20.2677,1012276
20.2739,801623
20.2802,654336
20.2864,575207
20.2927,480210
20.2989,417513
20.3052,413201
20.3115,437982
20.3177,459765
20.324,436021
20.3302,389932
20.3365,355500
20.3427,328557
20.349,310836
20.3552,298685
20.3615,284193
20.3678,273396
20.374,274046
20.3803,279384
20.3865,291139
20.3928,316547
20.399,384046
20.4053,514742
20.4115,680052
20.4178,815996
20.424,832330
20.4303,775489
20.4366,749056
20.4428,846572
20.4491,1101282
20.4553,1332431
20.4616,1449684
20.4678,1503767
20.4741,1503821
20.4803,1387252
20.4866,1242720
20.4929,1098974
20.4991,1305070
20.5054,2347091
20.5116,4976382
20.5179,8721615
20.5241,13276358
20.5304,16003697
20.5366,15758552
20.5429,11768742
20.5492,6760737
20.5554,3671652
20.5617,2499093
20.5679,2119665
20.5742,1998824
20.5804,1824564
20.5867,1565078
20.5929,1274844
20.5992,1066383
20.6055,954352
20.6117,900012
20.618,894871
20.6242,941740
20.6305,1225788
20.6367,2188635
20.643,4673111
20.6492,9563946
20.6555,16301808
20.6618,22567588
20.668,25765036
20.6743,23978260
20.6805,15040386
20.6868,6650854
20.693,2591103
20.6993,1596214
20.7055,1625546
20.7118,1679335
20.718,1443969
20.7243,1067243
20.7306,719863
20.7368,520373
20.7431,455165
20.7493,410566
20.7556,385023
20.7618,377073
20.7681,369798
20.7743,365144
20.7806,348485
20.7869,340712
20.7931,341187
20.7994,390498
20.8056,508724
20.8119,633900
20.8181,696873
20.8244,636595
20.8306,501865
20.8369,399547
20.8432,351942
20.8494,340744
20.8557,333072
20.8619,324546
20.8682,306902
20.8744,306254
20.8807,317895
20.8869,334892
20.8932,356381
20.8995,377767
20.9057,396105
20.912,406637
20.9182,410113
20.9245,390994
20.9307,357375
20.937,336886
20.9432,355075
20.9495,412020
20.9558,478584
20.962,539376
20.9683,510409
20.9745,449007
20.9808,363833
20.987,319551
20.9933,314287
20.9995,325551
21.0058,371689
21.012,461468
21.0183,609526
21.0246,757155
21.0308,789961
21.0371,693362
21.0433,537432
21.0496,432201
21.0558,380897
21.0621,378027
21.0683,411425
21.0746,458093
21.0809,464148
21.0871,427314
21.0934,370668
21.0996,328538
21.1059,313549
21.1121,315222
21.1184,347700
21.1246,408470
21.1309,486176
21.1372,563505
21.1434,647574
21.1497,795924
21.1559,1026864
21.1622,1208703
21.1684,1192941
21.1747,960316
21.1809,660578
21.1872,483429
21.1935,436786
21.1997,450730
21.206,478037
21.2122,451101
21.2185,388715
21.2247,338263
21.231,312708
21.2372,301823
21.2435,314236
21.2498,372331
21.256,584513
21.2623,1078666
21.2685,1881673
21.2748,2702170
21.281,2829211
21.2873,2189535
21.2935,1428357
21.2998,951146
21.306,753334
21.3123,671879
21.3186,596666
21.3248,506818
21.3311,411167
21.3373,350793
21.3436,318051
21.3498,301156
21.3561,301698
21.3623,301150
21.3686,310373
21.3749,332146
21.3811,348261
21.3874,357642
21.3936,355465
21.3999,342556
21.4061,329499
21.4124,331652
21.4186,344158
21.4249,423564
21.4312,660341
21.4374,1078077
21.4437,1517691
21.4499,1743601
21.4562,1571835
21.4624,1142603
21.4687,865786
21.4749,747055
21.4812,690480
21.4875,654078
21.4937,637445
21.5,608719
21.5062,573081
21.5125,512673
21.5187,438785
21.525,389464
21.5312,375374
21.5375,390852
21.5437,393506
21.55,373986
21.5563,338552
21.5625,297587
21.5688,275646
21.575,275685
21.5813,281509
21.5875,306307
21.5938,336530
21.6,346815
21.6063,339349
21.6126,320905
21.6188,282186
21.6251,259504
21.6313,249757
21.6376,244375
21.6438,257001
21.6501,297401
21.6563,390351
21.6626,540758
21.6689,802645
21.6751,1226549
21.6814,1739304
21.6876,2134434
21.6939,2111636
21.7001,1785474
21.7064,1370059
21.7126,1115871
21.7189,921792
21.7251,769977
21.7314,593061
21.7377,448706
21.7439,347870
21.7502,300381
21.7564,279882
21.7627,283803
21.7689,290912
21.7752,323273
21.7815,353687
21.7877,400436
21.794,452939
21.8002,622058
21.8065,1012504
21.8127,1743084
21.819,2654620
21.8252,3007446
21.8315,2518553
21.8377,1663309
21.844,934353
21.8503,568784
21.8565,419301
21.8628,359993
21.869,332853
21.8753,330675
21.8815,350386
21.8878,400376
21.894,482810
21.9003,557440
21.9065,580544
21.9128,525389
21.9191,423454
21.9253,349268
21.9316,318232
21.9378,313448
21.9441,315345
21.9503,339313
21.9566,356828
21.9629,362733
21.9691,362140
21.9754,383797
21.9816,414725
21.9879,441639
21.9941,463072
22.0004,437533
22.0066,397175
22.0129,359148
22.0192,324182
22.0254,295895
22.0317,265860
22.0379,255602
22.0442,251277
22.0504,249327
22.0567,257001
22.0629,282347
22.0692,350376
22.0755,518567
22.0817,845850
22.0879,1272644
22.0942,1530932
22.1005,1371353
22.1067,946078
22.113,565511
22.1192,384892
22.1255,340604
22.1317,381345
22.138,475687
22.1443,569984
22.1505,586136
22.1568,528418
22.163,454276
22.1693,410838
22.1755,411359
22.1818,408604
22.188,378694
22.1943,325802
22.2006,295601
22.2068,283149
22.2131,290191
22.2193,304710
22.2256,310862
22.2318,316627
22.2381,299772
22.2443,268125
22.2506,247558
22.2569,241258
22.2631,249098
22.2693,282459
22.2756,442834
22.2819,1105226
22.2881,3121190
22.2944,7417732
22.3006,14247125
22.3069,22434684
22.3132,30369180
22.3194,37231488
22.3257,43291972
22.3319,46856068
22.3382,47798728
22.3444,35911168
22.3507,10626436
22.3569,1928887
22.3632,829297
22.3694,641211
22.3757,545390
22.382,483666
22.3882,446284
22.3945,420585
22.4007,399414
22.407,384083
22.4132,374291
22.4195,379604
22.4257,378828
22.432,389886
22.4383,372619
22.4445,370078
22.4508,357626
22.457,350249
22.4633,337642
22.4695,325948
22.4758,326088
22.482,339964
22.4883,344653
22.4946,352265
22.5008,339298
22.5071,322323
22.5133,308830
22.5196,313726
22.5258,352781
22.5321,401290
22.5383,473626
22.5446,535670
22.5509,577132
22.5571,569445
22.5634,524097
22.5696,472271
22.5759,443953
22.5821,449684
22.5884,453650
22.5946,437238
22.6009,405997
22.6072,376195
22.6134,353978
22.6197,332355
22.6259,319545
22.6322,313657
22.6384,336627
22.6447,372414
22.6509,422186
22.6572,429823
22.6634,403810
22.6697,358968
22.676,319137
22.6822,291587
22.6885,285395
22.6947,279080
22.701,285680
22.7072,282762
22.7135,288213
22.7197,292285
22.726,291399
22.7323,299320
22.7385,314691
22.7448,335604
22.751,375964
22.7573,418423
22.7635,419927
22.7698,387422
22.776,340420
22.7823,296900
22.7886,280710
22.7948,275826
22.8011,275124
22.8073,277517
22.8136,279695
22.8198,277029
22.8261,275391
22.8323,276732
22.8386,267641
22.8449,259589
22.8511,251493
22.8574,245140
22.8636,243036
22.8699,241087
22.8761,231491
22.8824,226157
22.8886,219891
22.8949,229233
22.9012,238267
22.9074,236506
22.9137,237363
22.9199,231162
22.9262,238423
22.9324,237488
22.9387,237131
22.9449,245574
22.9512,251910
22.9574,263662
22.9637,286943
22.97,333537
22.9762,411886
22.9825,531699
22.9887,638821
22.995,682305
23.0012,601733
23.0075,448435
23.0137,345138
23.02,288139
23.0263,261759
23.0325,252978
23.0388,247696
23.045,249107
23.0513,249253
23.0575,254299
23.0638,250321
23.07,243515
23.0763,246615
23.0826,246028
23.0888,254802
23.0951,262351
23.1013,272368
23.1076,284052
23.1138,316207
23.1201,353027
23.1263,378958
23.1326,380588
23.1389,351086
23.1451,326932
23.1514,330483
23.1576,353737
23.1639,394043
23.1701,483631
23.1764,671971
23.1826,987552
23.1889,1211197
23.1951,1211570
23.2014,1078445
23.2077,960455
23.2139,920740
23.2202,869246
23.2264,761841
23.2327,610365
23.2389,489969
23.2452,458294
23.2514,490184
23.2577,561226
23.264,592730
23.2702,521470
23.2765,438103
23.2827,369736
23.289,325897
23.2952,308516
23.3015,297194
23.3077,288659
23.314,282134
23.3203,277133
23.3265,278021
23.3328,268192
23.339,264956
23.3453,263436
23.3515,252237
23.3578,255632
23.364,264576
23.3703,293746
23.3766,319660
23.3828,324139
23.3891,311323
23.3953,283543
23.4016,260023
23.4078,247322
23.4141,248637
23.4203,238738
23.4266,238997
23.4329,236685
23.4391,238711
23.4454,239721
23.4516,231863
23.4579,229477
23.4641,228073
23.4704,227413
23.4766,221388
23.4829,228201
23.4891,238070
23.4954,275609
23.5017,365874
23.5079,498038
23.5142,618937
23.5204,599180
23.5267,497983
23.5329,380928
23.5392,301782
23.5454,277721
23.5517,255888
23.558,240328
23.5642,237846
23.5705,229363
23.5767,232290
23.583,230600
23.5892,232519
23.5955,233681
23.6017,231277
23.608,228182
23.6143,223100
23.6205,221480
23.6268,215081
23.633,210332
23.6393,212166
23.6455,214241
23.6518,214730
23.658,225626
23.6643,239470
23.6706,253799
23.6768,250703
23.6831,239733
23.6893,223726
23.6956,215108
23.7018,212115
23.7081,206513
23.7143,216036
23.7206,231578
23.7269,283712
23.7331,364184
23.7394,434887
23.7456,476364
23.7519,448578
23.7581,409229
23.7644,358654
23.7706,324680
23.7769,299667
23.7831,284284
23.7894,257730
23.7957,244858
23.8019,235709
23.8082,228271
23.8144,224696
23.8207,229731
23.8269,234951
23.8332,230904
23.8394,229146
23.8457,233761
23.852,226663
23.8582,217288
23.8645,217419
23.8707,216102
23.877,214993
23.8832,215534
23.8895,219197
23.8957,224730
23.902,227493
23.9083,232221
23.9145,230475
23.9208,225754
23.927,221709
23.9333,214958
23.9395,212120
23.9458,211037
23.952,217096
23.9583,220941
23.9646,229273
23.9708,236288
23.9771,232570
23.9833,234055
23.9896,223937
23.9958,223154
24.0021,225991
24.0083,231890
24.0146,257806
24.0208,303448
24.0271,357366
24.0334,408539
24.0396,410934
24.0459,376006
24.0521,308494
24.0584,251897
24.0646,228237
24.0709,222737
24.0771,210538
24.0834,213142
24.0897,209994
24.0959,206304
24.1022,224569
24.1084,258015
24.1147,299987
24.1209,321214
24.1272,313305
24.1334,284950
24.1397,251905
24.146,245579
24.1522,244088
24.1585,240141
24.1647,240314
24.171,240199
24.1772,229814
24.1835,223842
24.1897,229933
24.196,239131
24.2023,264477
24.2085,309207
24.2148,351575
24.221,372129
24.2273,358071
24.2335,342236
24.2398,319890
24.246,287972
24.2523,263565
24.2586,242570
24.2648,233651
24.2711,257153
24.2773,305127
24.2836,428942
24.2898,627526
24.2961,825131
24.3023,906878
24.3086,827343
24.3148,684208
24.3211,538248
24.3274,449893
24.3336,410007
24.3399,378092
24.3461,337744
24.3524,299957
24.3586,276612
24.3649,255003
24.3711,240883
24.3774,239432
24.3837,234624
24.3899,238130
24.3962,238735
24.4024,228710
24.4087,230249
24.4149,229095
24.4212,230304
24.4274,239036
24.4337,262806
24.44,296782
24.4462,329754
24.4525,355776
24.4587,366224
24.465,376203
24.4712,375216
24.4775,371672
24.4837,355261
24.49,334717
24.4963,322325
24.5025,305590
24.5088,296116
24.515,282849
24.5213,274265
24.5275,257995
24.5338,259443
24.54,252012
24.5463,261317
24.5526,250622
24.5588,252653
24.5651,253349
24.5713,255419
24.5776,264608
24.5838,263113
24.5901,265681
24.5963,265728
24.6026,261131
24.6088,256957
24.6151,246564
24.6214,247782
24.6276,251513
24.6339,253998
24.6401,265457
24.6464,292180
24.6526,326964
24.6589,355796
24.6651,383359
24.6714,389493
24.6777,402125
24.6839,430664
24.6902,480563
24.6964,549435
24.7027,602315
24.7089,626453
24.7152,609793
24.7214,534322
24.7277,437451
24.734,363117
24.7402,326133
24.7465,310161
24.7527,317877
24.759,313665
24.7652,322992
24.7715,333608
24.7777,353015
24.784,366009
24.7903,370039
24.7965,369672
24.8028,338624
24.809,318857
24.8153,297402
24.8215,291825
24.8278,297073
24.834,320111
24.8403,312887
24.8465,316431
24.8528,317439
24.8591,312327
24.8653,318292
24.8716,328986
24.8778,345169
24.8841,381620
24.8903,427683
24.8966,481726
24.9028,564198
24.9091,694264
24.9154,881451
24.9216,1009440
24.9279,956153
24.9341,740207
24.9404,520967
24.9466,368864
24.9529,297626
24.9591,273465
24.9654,264966
24.9717,260543
24.9779,253286
24.9842,255871
24.9904,268676
24.9967,280159
25.0029,297677
25.0092,316985
25.0154,316237
25.0217,305639
25.028,288660
25.0342,277619
25.0405,272426
25.0467,269922
25.053,270642
25.0592,281989
25.0655,323358
25.0717,400826
25.078,554854
25.0843,770972
25.0905,988213
25.0968,1025088
25.103,872291
25.1093,626665
25.1155,426685
25.1218,331035
25.128,298025
25.1343,290813
25.1405,286084
25.1468,286865
25.1531,282245
25.1593,282856
25.1656,279487
25.1718,277108
25.1781,277293
25.1843,282985
25.1906,287836
25.1968,282345
25.2031,274558
25.2094,262490
25.2156,258142
25.2219,255143
25.2281,260044
25.2344,266160
25.2406,277349
25.2469,300683
25.2531,334672
25.2594,369149
25.2657,411355
25.2719,482953
25.2782,584824
25.2844,673692
25.2907,676418
25.2969,587782
25.3032,462978
25.3094,361533
25.3157,301121
25.322,270695
25.3282,260944
25.3345,262686
25.3407,268669
25.347,271594
25.3532,273265
25.3595,266799
25.3657,260407
25.372,260852
25.3783,253237
25.3845,256109
25.3908,261976
25.397,262356
25.4033,266849
25.4095,263546
25.4158,262626
25.422,261111
25.4283,262935
25.4345,255597
25.4408,254752
25.4471,264921
25.4533,272381
25.4596,287467
25.4658,306534
25.4721,318058
25.4783,339522
25.4846,347912
25.4908,334169
25.4971,314820
25.5034,289450
25.5096,271539
25.5159,256280
25.5221,259362
25.5284,262607
25.5346,280950
25.5409,302032
25.5471,326104
25.5534,347593
25.5597,367418
25.5659,386036
25.5722,404565
25.5784,419504
25.5847,434837
25.5909,464631
25.5972,558957
25.6034,773159
25.6097,974675
25.616,1043387
25.6222,880806
25.6285,639842
25.6347,487753
25.641,455553
25.6472,499868
25.6535,552876
25.6597,554734
25.666,466543
25.6722,377882
25.6785,321602
25.6848,290432
25.691,274691
25.6973,266735
25.7035,259102
25.7098,254980
25.716,256522
25.7223,257875
25.7285,261778
25.7348,274926
25.7411,280058
25.7473,293897
25.7536,310277
25.7598,299433
25.7661,287783
25.7723,274483
25.7786,264813
25.7848,257265
25.7911,261381
25.7974,272031
25.8036,299520
25.8099,360326
25.8161,448737
25.8224,543089
25.8286,605077
25.8349,604349
25.8411,570556
25.8474,524222
25.8537,524876
25.8599,626681
25.8662,815793
25.8724,996678
25.8787,1051126
25.8849,927173
25.8912,707598
25.8974,507482
25.9037,398431
25.91,335099
25.9162,308398
25.9225,295186
25.9287,296494
25.935,291211
25.9412,301632
25.9475,299921
25.9537,296332
25.96,296436
25.9662,293401
25.9725,305831
25.9788,309107
25.985,326421
25.9913,337276
25.9975,337526
26.0038,316799
26.01,289121
26.0163,265397
26.0225,248415
26.0288,249106
26.0351,252724
26.0413,246720
26.0476,254673
26.0538,265983
26.0601,274190
26.0663,279409
26.0726,273972
26.0788,259421
26.0851,253975
26.0914,252397
26.0976,245315
26.1039,248823
26.1101,253153
26.1164,257189
26.1226,261288
26.1289,258838
26.1351,251069
26.1414,254049
26.1477,246550
26.1539,249871
26.1602,248646
26.1664,259254
26.1727,261886
26.1789,288540
26.1852,332961
26.1914,381104
26.1977,405142
26.204,387164
26.2102,346808
26.2165,314212
26.2227,291514
26.229,287743
26.2352,280472
26.2415,279780
26.2477,274646
26.254,269637
26.2602,255271
26.2665,249859
26.2728,241712
26.279,242644
26.2853,240186
26.2915,245757
26.2978,241276
26.304,245556
26.3103,249499
26.3165,246124
26.3228,249173
26.3291,256220
26.3353,255589
26.3416,262312
26.3478,261943
26.3541,258545
26.3603,255490
26.3666,254288
26.3728,251946
26.3791,251263
26.3854,256433
26.3916,252276
26.3979,248208
26.4041,249274
26.4104,248465
26.4166,255420
26.4229,280648
26.4291,355914
26.4354,472298
26.4417,619019
26.4479,693371
26.4542,643526
26.4604,536765
26.4667,408737
26.4729,330030
26.4792,280076
26.4854,268612
26.4917,258150
26.498,253289
26.5042,245394
26.5105,253184
26.5167,256563
26.523,248487
26.5292,249746
26.5355,245277
26.5417,246213
26.548,244847
26.5542,241227
26.5605,237073
26.5668,236700
26.573,233755
26.5793,239411
26.5855,240568
26.5918,242077
26.598,245891
26.6043,249071
26.6105,255504
26.6168,255809
26.6231,258673
26.6293,271039
26.6356,286242
26.6418,301797
26.6481,304002
26.6543,308408
26.6606,325557
26.6668,370691
26.6731,422836
26.6794,446208
26.6856,459807
26.6919,477671
26.6981,496087
26.7044,540609
26.7106,551700
26.7169,555885
26.7231,513799
26.7294,455481
26.7357,412622
26.7419,386990
26.7482,364924
26.7544,346292
26.7607,329895
26.7669,307881
26.7732,303908
26.7794,308898
26.7857,323959
26.7919,359722
26.7982,384979
26.8045,398613
26.8107,398786
26.817,374661
26.8232,350780
26.8295,319629
26.8357,308502
26.842,301773
26.8482,294611
26.8545,299425
26.8608,293717
26.867,304278
26.8733,304815
26.8795,301842
26.8858,308883
26.892,312859
26.8983,320539
26.9045,317844
26.9108,318467
26.9171,305821
26.9233,297536
26.9296,287796
26.9358,272192
26.9421,260819
26.9483,251175
26.9546,252653
26.9608,249763
26.9671,248625
26.9734,251927
26.9796,256345
26.9859,256080
26.9921,257132
26.9984,247078
27.0046,250432
27.0109,251044
27.0171,247552
27.0234,251929
27.0297,258458
27.0359,271946
27.0422,293060
27.0484,308970
27.0547,320903
27.0609,326979
27.0672,351154
27.0734,382312
27.0797,419149
27.0859,404264
27.0922,358981
27.0985,308542
27.1047,285734
27.111,271198
27.1172,263963
27.1235,263839
27.1297,256419
27.136,257285
27.1422,257578
27.1485,256884
27.1548,256526
27.161,259416
27.1673,256917
27.1735,259174
27.1798,262398
27.186,269638
27.1923,267990
27.1985,264919
27.2048,262931
27.2111,259791
27.2173,254683
27.2236,255168
27.2298,253891
27.2361,247041
27.2423,246869
27.2486,249264
27.2548,247614
27.2611,243005
27.2674,246044
27.2736,248725
27.2799,252732
27.2861,250911
27.2924,251156
27.2986,251766
27.3049,252891
27.3111,250569
27.3174,253207
27.3237,253403
27.3299,258132
27.3362,254055
27.3424,260267
27.3487,254345
27.3549,251003
27.3612,262720
27.3674,262803
27.3737,270494
27.3799,275956
27.3862,286288
27.3925,290130
27.3987,299756
27.405,311168
27.4112,336361
27.4175,375256
27.4237,403010
27.43,422165
27.4362,392179
27.4425,345980
27.4488,300297
27.455,280199
27.4613,272485
27.4675,265327
27.4738,264108
27.48,268331
27.4863,269828
27.4925,278583
27.4988,291236
27.5051,299141
27.5113,303978
27.5176,301525
27.5238,308907
27.5301,310748
27.5363,308885
27.5426,306758
27.5488,309724
27.5551,313324
27.5614,308622
27.5676,318709
27.5739,369478
27.5801,545381
27.5864,939089
27.5926,1560758
27.5989,2144064
27.6051,2140189
27.6114,1709513
27.6176,1145162
27.6239,678540
27.6302,425626
27.6364,332332
27.6427,313220
27.6489,311394
27.6552,320408
27.6614,326485
27.6677,330349
27.6739,326440
27.6802,312828
27.6865,303565
27.6927,291003
27.699,284767
27.7052,286000
27.7115,278453
27.7177,281551
27.724,281370
27.7302,284157
27.7365,287201
27.7428,280683
27.749,281021
27.7553,279250
27.7615,284603
27.7678,286418
27.774,280616
27.7803,290203
27.7865,301217
27.7928,328619
27.7991,363911
27.8053,386789
27.8116,372106
27.8178,352011
27.8241,319156
27.8303,296857
27.8366,289478
27.8428,292674
27.8491,303794
27.8554,318464
27.8616,358708
27.8679,392685
27.8741,419750
27.8804,416450
27.8866,381407
27.8929,339242
27.8991,308427
27.9054,292348
27.9116,277189
27.9179,273621
27.9242,265753
27.9304,267170
27.9367,264405
27.9429,267321
27.9492,267202
27.9554,264033
27.9617,263564
27.9679,258118
27.9742,260199
27.9805,261185
27.9867,265497
27.993,263014
27.9992,258923
28.0055,267100
28.0117,263549
28.018,268278
28.0242,260950
28.0305,272205
28.0368,273102
28.043,279153
28.0493,275795
28.0555,277098
28.0618,273010
28.068,289230
28.0743,313198
28.0805,364739
28.0868,412292
28.0931,448809
28.0993,439211
28.1056,407455
28.1118,350041
28.1181,311109
28.1243,295872
28.1306,285306
28.1368,282522
28.1431,280461
28.1494,274750
28.1556,274255
28.1619,262538
28.1681,252819
28.1744,257946
28.1806,255600
28.1869,251102
28.1931,255722
28.1994,266571
28.2056,265851
28.2119,268532
28.2182,269408
28.2244,260778
28.2307,265418
28.2369,280989
28.2432,300439
28.2494,325717
28.2557,337176
28.2619,334467
28.2682,315650
28.2745,294552
28.2807,279852
28.287,272513
28.2932,269327
28.2995,259373
28.3057,247991
28.312,244397
28.3182,242281
28.3245,242055
28.3308,241760
28.337,247381
28.3433,252284
28.3495,249566
28.3558,246174
28.362,244126
28.3683,241470
28.3745,236262
28.3808,233797
28.3871,227750
28.3933,232982
28.3996,225712
28.4058,233317
28.4121,233554
28.4183,233551
28.4246,231846
28.4308,232376
28.4371,235763
28.4433,227725
28.4496,230123
28.4559,228088
28.4621,230943
28.4684,233900
28.4746,241642
28.4809,251039
28.4871,257962
28.4934,256153
28.4996,249845
28.5059,243732
28.5122,238335
28.5184,231784
28.5247,219303
28.5309,215748
28.5372,210402
28.5434,211209
28.5497,215151
28.5559,215873
28.5622,212525
28.5685,216940
28.5747,209887
28.581,208048
28.5872,208652
28.5935,203973
28.5997,209038
28.606,203185
28.6122,206977
28.6185,205387
28.6248,205971
28.631,208202
28.6373,204439
28.6435,204204
28.6498,204045
28.656,199349
28.6623,201483
28.6685,202138
28.6748,202449
28.6811,204895
28.6873,204034
28.6936,200415
28.6998,201923
28.7061,206842
28.7123,203075
28.7186,209842
28.7248,206939
28.7311,210396
28.7373,211266
28.7436,204365
28.7499,208689
28.7561,203624
28.7624,204343
28.7686,203614
28.7749,200390
28.7811,195770
28.7874,199073
28.7936,196072
28.7999,197968
28.8062,190579
28.8124,196482
28.8187,196976
28.8249,193795
28.8312,193856
28.8374,191084
28.8437,192214
28.8499,195569
28.8562,192423
28.8625,192622
28.8687,192249
28.875,194082
28.8812,194643
28.8875,191217
28.8937,192849
28.9,194007
28.9062,191126
28.9125,190434
28.9188,197248
28.925,195412
28.9313,192660
28.9375,191421
28.9438,194569
28.95,198768
28.9563,203659
28.9625,208705
28.9688,209312
28.9751,212851
28.9813,213272
28.9876,204601
28.9938,203945
29.0001,199316
29.0063,197682
29.0126,190082
29.0188,191164
29.0251,187416
29.0313,189222
29.0376,189897
29.0439,188214
29.0501,189444
29.0564,185244
29.0626,187249
29.0689,183169
29.0751,189429
29.0814,186567
29.0876,184880
29.0939,182852
29.1002,184192
29.1064,177757
29.1127,185340
29.1189,182834
29.1252,185489
29.1314,182141
29.1377,186095
29.1439,184996
29.1502,179131
29.1565,181524
29.1627,179710
29.169,181464
29.1752,175907
29.1815,180438
29.1877,189580
29.194,189426
29.2002,191533
29.2065,191043
29.2128,192013
29.219,192012
29.2253,185561
29.2315,182508
29.2378,177471
29.244,178831
29.2503,182169
29.2565,177213
29.2628,174697
29.269,176871
29.2753,174500
29.2816,177988
29.2878,176092
29.2941,181651
29.3003,176809
29.3066,178213
29.3128,178274
29.3191,180487
29.3253,174858
29.3316,175258
29.3379,177574
29.3441,175311
29.3504,173967
29.3566,173756
29.3629,175358
29.3691,172989
29.3754,175648
29.3816,177269
29.3879,174517
29.3942,174699
29.4004,174490
29.4067,169450
29.4129,173087
29.4192,174908
29.4254,173363
29.4317,173835
29.4379,172932
29.4442,174919
29.4505,176635
29.4567,174750
29.463,174039
29.4692,176193
29.4755,174451
29.4817,174959
29.488,169213
29.4942,172210
29.5005,171370
29.5068,174290
29.513,172103
29.5193,168452
29.5255,171653
29.5318,171737
29.538,168451
29.5443,172443
29.5505,169082
29.5568,171437
29.563,169721
29.5693,171221
29.5756,170015
29.5818,170986
29.5881,166010
29.5943,167417
29.6006,166767
29.6068,167534
29.6131,171626
29.6193,167161
29.6256,170251
29.6319,165968
29.6381,172330
29.6444,170452
29.6506,169276
29.6569,167780
29.6631,172686
29.6694,169968
29.6756,171921
29.6819,172975
29.6882,165769
29.6944,168833
29.7007,166348
29.7069,169816
29.7132,169179
29.7194,170022
29.7257,169713
29.7319,166670
29.7382,169186
29.7445,167361
29.7507,170135
29.757,169026
29.7632,170436
29.7695,170813
29.7757,170454
29.782,169036
29.7882,170211
29.7945,166015
29.8008,162648
29.807,165617
29.8133,165882
29.8195,162047
29.8258,164826
29.832,168538
29.8383,168491
29.8445,162007
29.8508,165864
29.857,168196
29.8633,167722
29.8696,167238
29.8758,165651
29.8821,162978
29.8883,164024
29.8946,163298
29.9008,160378
29.9071,160217
29.9133,164245
29.9196,158649
29.9259,160116
29.9321,162670
29.9384,159976
29.9446,157708
29.9509,161458
29.9571,158868
29.9634,161297
29.9696,161849
29.9759,159185
29.9822,160385
29.9884,161316
29.9947,162584
30.0009,159303
30.0072,158882
30.0134,158157
30.0197,159490
30.0259,160249
30.0322,157057
30.0385,160193
30.0447,155561
30.051,159408
30.0572,157846
30.0635,161914
30.0697,160017
30.076,156651
30.0822,159543
30.0885,156349
30.0947,158135
30.101,157809
30.1073,161118
30.1135,158541
30.1198,159299
30.126,159146
30.1323,157462
30.1385,156655
30.1448,156103
30.151,153403
30.1573,156583
30.1636,155621
30.1698,155454
30.1761,158869
30.1823,159950
30.1886,156384
30.1948,152292
30.2011,154807
30.2073,152037
30.2136,156349
30.2199,154682
30.2261,152356
30.2324,156371
30.2386,156949
30.2449,150657
30.2511,152785
30.2574,156636
30.2636,156239
30.2699,155654
30.2762,153837
30.2824,156343
30.2887,156940
30.2949,151792
30.3012,157077
30.3074,152452
30.3137,154087
30.3199,157401
30.3262,154569
30.3325,151707
30.3387,150325
30.345,153682
30.3512,153719
30.3575,153278
30.3637,155557
30.37,153158
30.3762,150766
30.3825,152547
30.3887,151300
30.395,153996
30.4013,149674
30.4075,156231
30.4138,154622
30.42,150144
30.4263,154103
30.4325,152004
30.4388,149090
30.445,150757
30.4513,152888
30.4576,150690
30.4638,151244
30.4701,150216
30.4763,152228
30.4826,153108
30.4888,151050
30.4951,149433
30.5013,154629
30.5076,148776
30.5139,152742
30.5201,149554
30.5264,149234
30.5326,147927
30.5389,150204
30.5451,153026
30.5514,149033
30.5576,152707
30.5639,151991
30.5702,150438
30.5764,151608
30.5827,148706
30.5889,149537
30.5952,146922
30.6014,150899
30.6077,145256
30.6139,148993
30.6202,150656
30.6265,148167
30.6327,150271
30.639,147548
30.6452,150738
30.6515,150287
30.6577,150284
30.664,152068
30.6702,153113
30.6765,153678
30.6827,150184
30.689,152751
30.6953,152303
30.7015,151271
30.7078,150548
30.714,149312
30.7203,148066
30.7265,151159
30.7328,146775
30.739,146426
30.7453,148457
30.7516,148185
30.7578,146757
30.7641,149364
30.7703,148823
30.7766,146105
30.7828,148826
30.7891,148285
30.7953,144020
30.8016,143048
30.8079,147177
30.8141,144956
30.8204,147127
30.8266,148496
30.8329,145150
30.8391,145316
30.8454,146779
30.8516,147080
30.8579,147095
30.8642,149304
30.8704,145335
30.8767,144492
30.8829,142322
30.8892,145949
30.8954,148091
30.9017,145177
30.9079,147301
30.9142,143830
30.9205,143736
30.9267,147991
30.933,144719
30.9392,143919
30.9455,147761
30.9517,143843
30.958,145545
30.9642,146087
30.9705,146193
30.9767,143574
30.983,140974
30.9893,142032
30.9955,144744
31.0018,144553
31.008,149419
31.0143,149068
31.0205,150615
31.0268,152151
31.033,151628
31.0393,158332
31.0456,157216
31.0518,157832
31.0581,158533
31.0643,152641
31.0706,154804
31.0768,153420
31.0831,150628
31.0893,152833
31.0956,147835
31.1019,145747
31.1081,144908
31.1144,144566
31.1206,145234
31.1269,141947
31.1331,144238
31.1394,145310
31.1456,146627
31.1519,144185
31.1582,145937
31.1644,145661
31.1707,142368
31.1769,141635
31.1832,147039
31.1894,142956
31.1957,146234
31.2019,137443
31.2082,144122
31.2144,143297
31.2207,140430
31.227,146551
31.2332,138783
31.2395,138706
31.2457,139558
31.252,140871
31.2582,143172
31.2645,140579
31.2707,142005
31.277,141291
31.2833,139023
31.2895,139908
31.2958,143161
31.302,144905
31.3083,142296
31.3145,141798
31.3208,145804
31.327,142620
31.3333,140885
31.3396,144388
31.3458,141879
31.3521,142003
31.3583,144084
31.3646,143355
31.3708,142730
31.3771,143456
31.3833,143449
31.3896,138773
31.3959,142683
31.4021,143948
31.4084,144207
31.4146,141720
31.4209,143807
31.4271,138674
31.4334,142392
31.4396,138631
31.4459,141768
31.4522,137033
31.4584,140516
31.4647,140435
31.4709,138811
31.4772,140616
31.4834,140097
31.4897,140240
31.4959,143456
31.5022,147574
31.5084,139945
31.5147,147359
31.521,142660
31.5272,142773
31.5335,146349
31.5397,150400
31.546,145223
31.5522,145046
31.5585,144025
31.5647,140946
31.571,140011
31.5773,137127
31.5835,142076
31.5898,138669
31.596,139502
31.6023,139557
31.6085,141373
31.6148,136257
31.621,139806
31.6273,137897
31.6336,138151
31.6398,137156
31.6461,142361
31.6523,138763
31.6586,138365
31.6648,137882
31.6711,139328
31.6773,137846
31.6836,139490
31.6899,132828
31.6961,137756
31.7024,138380
31.7086,138794
31.7149,140153
31.7211,139396
31.7274,136778
31.7336,137762
31.7399,137755
31.7462,137603
31.7524,142042
31.7587,139240
31.7649,137348
31.7712,139100
31.7774,136353
31.7837,136388
31.7899,135806
31.7962,137179
31.8024,134802
31.8087,134762
31.815,138522
31.8212,134860
31.8275,136085
31.8337,136580
31.84,137690
31.8462,136422
31.8525,135196
31.8587,133935
31.865,137954
31.8713,137842
31.8775,137897
31.8838,133254
31.89,136824
31.8963,134995
31.9025,139321
31.9088,137971
31.915,140501
31.9213,138762
31.9276,140544
31.9338,140447
31.9401,139314
31.9463,137204
31.9526,141403
31.9588,138154
31.9651,137755
31.9713,135659
31.9776,139528
31.9839,138107
31.9901,138247
31.9964,138600
32.0026,135649
32.0089,137670
32.0151,138256
32.0214,136040
32.0276,136687
32.0339,135789
32.0401,135938
32.0464,136640
32.0527,134906
32.0589,136316
32.0652,134342
32.0714,136446
32.0777,135411
32.0839,131105
32.0902,135759
32.0964,134461
32.1027,133451
32.109,132306
32.1152,132194
32.1215,135875
32.1277,135847
32.134,135319
32.1402,135145
32.1465,135406
32.1527,135177
32.159,135653
32.1653,136578
32.1715,139069
32.1778,134812
32.184,138344
32.1903,135697
32.1965,135386
32.2028,137485
32.209,134744
32.2153,134723
32.2216,136436
32.2278,134490
32.2341,132710
32.2403,131896
32.2466,133455
32.2528,131068
32.2591,131532
32.2653,131299
32.2716,130104
32.2779,136259
32.2841,132106
32.2903,134337
32.2966,131469
32.3029,136025
32.3091,132069
32.3154,134366
32.3216,131599
32.3279,132108
32.3341,132559
32.3404,133835
32.3466,130604
32.3529,130684
32.3592,132181
32.3654,130389
32.3717,136767
32.3779,128771
32.3842,133326
32.3904,135463
32.3967,130414
32.4029,130999
32.4092,131386
32.4155,130432
32.4217,134883
32.428,132035
32.4342,130496
32.4405,133399
32.4467,130870
32.453,133160
32.4592,125948
32.4655,130081
32.4718,127588
32.478,135403
32.4843,130761
32.4905,132718
32.4968,129400
32.503,130790
32.5093,130878
32.5155,128421
32.5218,131809
32.5281,132334
32.5343,130246
32.5406,133666
32.5468,129613
32.5531,135443
32.5593,129826
32.5656,129558
32.5718,130484
32.5781,133041
32.5844,129188
32.5906,130673
32.5969,128546
32.6031,131118
32.6094,131321
32.6156,130652
32.6219,130173
32.6281,131386
32.6344,130719
32.6407,130068
32.6469,126638
32.6532,128459
32.6594,127234
32.6657,124561
32.6719,127551
32.6782,127513
32.6844,127476
32.6907,126830
32.697,134145
32.7032,129415
32.7095,132855
32.7157,133065
32.722,129450
32.7282,131485
32.7345,128128
32.7407,128516
32.747,131226
32.7533,129681
32.7595,126572
32.7657,129363
32.772,132257
32.7783,128103
32.7845,131514
32.7908,129156
32.797,131037
32.8033,129362
32.8096,134527
32.8158,128939
32.822,128654
32.8283,129834
32.8346,128446
32.8408,131847
32.8471,129330
32.8533,127303
32.8596,128365
32.8658,128559
32.8721,125664
32.8783,129908
32.8846,123812
32.8909,129353
32.8971,128777
32.9034,124823
32.9096,128519
32.9159,127205
32.9221,125902
32.9284,129168
32.9346,127451
32.9409,126105
32.9472,126506
32.9534,130572
32.9597,127547
32.9659,124658
32.9722,128337
32.9784,125730
32.9847,127110
32.9909,125464
32.9972,124812
33.0035,125712
33.0097,130334
33.016,131159
33.0222,123387
33.0285,128169
33.0347,126698
33.041,126363
33.0472,125241
33.0535,125968
33.0598,127888
33.066,127307
33.0723,126402
33.0785,128025
33.0848,125849
33.091,124468
33.0973,125441
33.1035,126461
33.1098,127128
33.1161,128044
33.1223,127871
33.1286,123495
33.1348,124989
33.1411,127880
33.1473,119968
33.1536,127255
33.1598,125567
33.1661,124955
33.1724,131580
33.1786,128889
33.1849,126953
33.1911,122429
33.1974,125768
33.2036,125600
33.2099,125635
33.2161,126272
33.2224,129175
33.2287,124424
33.2349,126397
33.2412,124492
33.2474,121428
33.2537,123651
33.2599,126524
33.2662,126062
33.2724,126386
33.2787,125888
33.285,127802
33.2912,125647
33.2974,128621
33.3037,124952
33.31,127014
33.3162,127654
33.3225,129186
33.3287,129444
33.335,126987
33.3413,123771
33.3475,125748
33.3537,125340
33.36,124969
33.3663,123749
33.3725,126536
33.3788,124428
33.385,129305
33.3913,127266
33.3976,126335
33.4038,125628
33.41,124427
33.4163,123954
33.4226,121952
33.4288,122926
33.4351,126070
33.4413,125979
33.4476,122927
33.4538,126558
33.4601,127265
33.4663,125035
33.4726,122595
33.4789,122120
33.4851,127929
33.4914,125855
33.4976,125369
33.5039,123287
33.5101,125411
33.5164,125343
33.5226,130247
33.5289,123469
33.5352,123955
33.5414,123876
33.5477,125333
33.5539,124261
33.5602,123289
33.5664,123782
33.5727,124258
33.5789,124127
33.5852,123915
33.5915,124722
33.5977,123876
33.604,122371
33.6102,122091
33.6165,122517
33.6227,123059
33.629,127257
33.6352,123408
33.6415,121321
33.6478,124180
33.654,122666
33.6603,126814
33.6665,122029
33.6728,123013
33.679,121633
33.6853,121003
33.6915,120628
33.6978,124479
33.7041,125241
33.7103,120275
33.7166,123813
33.7228,123309
33.7291,123005
33.7353,124049
33.7416,122755
33.7478,121249
33.7541,124232
33.7604,128028
33.7666,122406
33.7729,121125
33.7791,125310
33.7854,122539
33.7916,127722
33.7979,124619
33.8041,125709
33.8104,124114
33.8167,124197
33.8229,121158
33.8291,121950
33.8354,122858
33.8417,123436
33.8479,122423
33.8542,122124
33.8604,120039
33.8667,120656
33.873,122535
33.8792,123305
33.8854,119489
33.8917,127150
33.898,125383
33.9042,125046
33.9105,123901
33.9167,127562
33.923,120084
33.9293,120856
33.9355,123755
33.9417,121104
33.948,122569
33.9543,122440
33.9605,123280
33.9668,121650
33.973,119835
33.9793,123697
33.9855,124120
33.9918,119172
33.998,123887
34.0043,123053
34.0106,123976
34.0168,119189
34.0231,123189
34.0293,124081
34.0356,124442
34.0418,124132
34.0481,125324
34.0543,124734
34.0606,126722
34.0669,121340
34.0731,121538
34.0794,122497
34.0856,124679
34.0919,122463
34.0981,125314
34.1044,125394
34.1107,121981
34.1169,124889
34.1232,125205
34.1294,120049
34.1357,121179
34.1419,121137
34.1482,124490
34.1544,120129
34.1607,119998
34.167,121822
34.1732,121101
34.1795,122016
34.1857,120470
34.192,122294
34.1982,123448
34.2045,118868
34.2107,124142
34.217,120911
34.2233,124266
34.2295,120189
34.2358,121040
34.242,122437
34.2483,121585
34.2545,121872
34.2608,119379
34.267,121012
34.2733,121477
34.2795,122399
34.2858,120755
34.2921,118952
34.2983,118383
34.3046,125847
34.3108,120409
34.3171,121967
34.3233,122303
34.3296,118315
34.3358,118099
34.3421,117475
34.3484,115624
34.3546,122446
34.3609,120273
34.3671,119580
34.3734,123648
34.3796,121548
34.3859,116771
34.3921,118467
34.3984,119653
34.4046,119845
34.4109,120319
34.4171,120909
34.4234,120104
34.4297,122296
34.4359,120546
34.4422,119822
34.4484,120589
34.4547,119126
34.4609,120920
34.4672,119781
34.4735,121733
34.4797,117462
34.486,121781
34.4922,120176
34.4985,118431
34.5047,120999
34.511,118688
34.5172,118590
34.5235,121899
34.5298,118831
34.536,121366
34.5423,121869
34.5485,120016
34.5548,118747
34.561,120215
34.5673,118776
34.5735,120791
34.5798,118228
34.5861,123371
34.5923,123495
34.5986,116548
34.6048,118786
34.6111,120519
34.6173,119199
34.6236,116795
34.6298,121045
34.6361,118926
34.6424,120833
34.6486,124590
34.6549,120209
34.6611,121455
34.6674,117720
34.6736,122709
34.6799,117605
34.6861,117161
34.6924,118462
34.6987,117941
34.7049,119545
34.7112,116370
34.7174,119381
34.7237,117785
34.7299,116641
34.7362,121749
34.7424,119293
34.7487,119693
34.755,117597
34.7612,118760
34.7674,118760
34.7737,118505
34.78,116700
34.7862,117127
34.7925,120705
34.7987,117397
34.805,122859
34.8112,118868
34.8175,121399
34.8237,116561
34.83,119524
34.8363,125056
34.8425,118339
34.8488,121495
34.855,120919
34.8613,120266
34.8675,117247
34.8738,117924
34.88,118368
34.8863,119280
34.8926,117724
34.8988,119842
34.9051,121970
34.9113,119423
34.9176,115618
34.9238,115438
34.9301,115513
34.9363,117135
34.9426,118642
34.9489,114816
34.9551,116285
34.9614,117762
34.9676,117386
34.9739,114549
34.9801,120770
34.9864,117114
34.9927,119074
34.9989,113991
35.0052,117989
35.0114,118572
35.0177,121965
35.0239,120396
35.0302,119555
35.0364,116542
35.0427,122656
35.049,119676
35.0552,116924
35.0615,115380
35.0677,123391
35.074,118941
35.0802,113674
35.0865,118500
35.0927,115940
35.099,119990
35.1052,117686
35.1115,118268
35.1178,116919
35.124,119718
35.1303,122404
35.1365,120589
35.1428,114779
35.149,117785
35.1553,116086
35.1615,117611
35.1678,120731
35.1741,116117
35.1803,119038
35.1866,115947
35.1928,115918
35.1991,116994
35.2053,115301
35.2116,119081
35.2178,121867
35.2241,119474
35.2304,114986
35.2366,117120
35.2429,113047
35.2491,117594
35.2554,114059
35.2616,115409
35.2679,114792
35.2741,119041
35.2804,117634
35.2867,114848
35.2929,117404
35.2992,115410
35.3054,118037
35.3117,117916
35.3179,117160
35.3242,114612
35.3304,115823
35.3367,115999
35.343,119953
35.3492,113173
35.3555,116572
35.3617,117697
35.368,117287
35.3742,119611
35.3805,117573
35.3867,119713
35.393,119408
35.3992,118154
35.4055,115618
35.4118,116492
35.418,113697
35.4243,115203
35.4305,119751
35.4368,117416
35.443,119102
35.4493,119162
35.4555,111382
35.4618,113523
35.4681,115715
35.4743,114207
35.4806,115169
35.4868,112935
35.4931,115780
35.4993,115401
35.5056,110487
35.5118,119360
35.5181,118705
35.5243,114569
35.5306,116424
35.5369,119842
35.5431,117856
35.5494,117303
35.5556,118309
35.5619,116620
35.5681,114637
35.5744,113700
35.5806,115549
35.5869,117473
35.5932,115445
35.5994,116772
35.6057,116424
35.6119,115451
35.6182,115466
35.6244,114759
35.6307,115801
35.6369,115848
35.6432,115655
35.6495,118027
35.6557,115645
35.662,114095
35.6682,115204
35.6745,117105
35.6807,115421
35.687,117392
35.6932,118159
35.6995,117277
35.7058,114875
35.712,115386
35.7183,114516
35.7245,114932
35.7308,114938
35.737,115672
35.7433,113071
35.7495,113746
35.7558,117117
35.7621,114016
35.7683,116940
35.7746,117006
35.7808,116728
35.7871,115217
35.7933,118345
35.7996,114927
35.8058,114795
35.8121,114128
35.8184,114425
35.8246,113691
35.8309,119464
35.8371,118655
35.8434,113415
35.8496,115954
35.8559,115621
35.8621,116376
35.8684,111253
35.8747,113484
35.8809,114335
35.8871,113992
35.8934,115729
35.8997,114899
35.9059,117714
35.9122,116817
35.9184,114212
35.9247,114678
35.9309,112749
35.9372,112197
35.9434,114440
35.9497,113125
35.956,113565
35.9622,116434
35.9685,113927
35.9747,114333
35.981,112148
35.9872,114686
35.9935,113927
35.9997,118255
36.006,116081
36.0123,114243
36.0185,113777
36.0248,117288
36.031,114206
36.0373,116722
36.0435,113180
36.0498,116931
36.056,114398
36.0623,114078
36.0686,112818
36.0748,112155
36.0811,111993
36.0873,116790
36.0936,116150
36.0998,115063
36.1061,113938
36.1123,112641
36.1186,116350
36.1249,116004
36.1311,116964
36.1374,115200
36.1436,112340
36.1499,116099
36.1561,117076
36.1624,120690
36.1687,111609
36.1749,118505
36.1812,116453
36.1874,113751
36.1937,114052
36.1999,118292
36.2062,115834
36.2124,117945
36.2187,114882
36.2249,118401
36.2312,117139
36.2375,115715
36.2437,114986
36.25,113527
36.2562,112620
36.2625,115846
36.2687,112338
36.275,113780
36.2812,115476
36.2875,115917
36.2938,115158
36.3,108823
36.3063,109403
36.3125,118148
36.3188,113375
36.325,114426
36.3313,115028
36.3375,115645
36.3438,112947
36.3501,114165
36.3563,115565
36.3625,115020
36.3688,114130
36.3751,110643
36.3813,111816
36.3876,113595
36.3938,114072
36.4001,115250
36.4064,111833
36.4126,112679
36.4188,116212
36.4251,113805
36.4314,114485
36.4376,111202
36.4439,117377
36.4501,111581
36.4564,113498
36.4626,115176
36.4689,111015
36.4751,115102
36.4814,116432
36.4877,113693
36.4939,117615
36.5002,114829
36.5064,112661
36.5127,114005
36.5189,112308
36.5252,111726
36.5315,116602
36.5377,114143
36.544,112803
36.5502,112765
36.5565,111613
36.5627,112853
36.569,114108
36.5752,110487
36.5815,120197
36.5878,111841
36.594,114044
36.6003,116158
36.6065,111933
36.6128,112695
36.619,112420
36.6253,116057
36.6315,114648
36.6378,111309
36.6441,116477
36.6503,116362
36.6566,113427
36.6628,114144
36.6691,115712
36.6753,113460
36.6816,113730
36.6878,113598
36.6941,112976
36.7004,114970
36.7066,112001
36.7129,112962
36.7191,116291
36.7254,113948
36.7316,112427
36.7379,113212
36.7441,112692
36.7504,114080
36.7566,111716
36.7629,111613
36.7692,112698
36.7754,111830
36.7817,112876
36.7879,115612
36.7942,115326
36.8004,113543
36.8067,113271
36.8129,113184
36.8192,110635
36.8255,112170
36.8317,115074
36.838,111362
36.8442,113611
36.8505,114426
36.8567,113923
36.863,109840
36.8692,113368
36.8755,114644
36.8818,111913
36.888,111003
36.8943,107149
36.9005,111049
36.9068,110368
36.913,114477
36.9193,111148
36.9255,118324
36.9318,114322
36.9381,114139
36.9443,111963
36.9506,113559
36.9568,112462
36.9631,110044
36.9693,109439
36.9756,114299
36.9818,112928
36.9881,114851
36.9944,112706
37.0006,110316
37.0069,110549
37.0131,112038
37.0194,112911
37.0256,113971
37.0319,113417
37.0381,114501
37.0444,110364
37.0506,112750
37.0569,113480
37.0632,111590
37.0694,112678
37.0757,110523
37.0819,109597
37.0882,112715
37.0944,107532
37.1007,114558
37.1069,114778
37.1132,110929
37.1195,110045
37.1257,112791
37.132,116371
37.1382,111714
37.1445,110116
37.1507,111248
37.157,111258
37.1632,110038
37.1695,113939
37.1758,110268
37.182,110127
37.1883,110575
37.1945,109437
37.2008,108658
37.207,111769
37.2133,109759
37.2195,111485
37.2258,109585
37.2321,112577
37.2383,110273
37.2446,112521
37.2508,113942
37.2571,108506
37.2633,110662
37.2696,110379
37.2758,113173
37.2821,112082
37.2883,111488
37.2946,109420
37.3009,109013
37.3071,113406
37.3134,111683
37.3196,112150
37.3259,111655
37.3321,109644
37.3384,110111
37.3446,113947
37.3509,112703
37.3572,113122
37.3634,112384
37.3697,113226
37.3759,112202
37.3822,109722
37.3884,111651
37.3947,114402
37.4009,111934
37.4072,111835
37.4135,113174
37.4197,111664
37.426,112624
37.4322,110938
37.4385,111187
37.4447,112686
37.451,112163
37.4572,113578
37.4635,113040
37.4698,108152
37.476,111750
37.4823,113663
37.4885,114602
