D:\METABOLOMICS_DATA\UDN_Pilot1_P_A_UDN000015_M_026.D 23 Jun 16   4:40 am
Start of data points
6.09303,4208422
6.0993,4949573
6.10555,5409120
6.1118,5901107
6.11807,6237944
6.12432,6480620
6.13057,6717033
6.13683,7118149
6.14308,7613887
6.14933,8122834
6.1556,8547926
6.16185,9136998
6.1681,9867641
6.17437,11010883
6.18062,12413284
6.18687,14594618
6.19313,17619626
6.19938,21992026
6.20563,27752402
6.2119,35199664
6.21815,43705336
6.2244,49900280
6.23065,52022828
6.23692,46384508
6.24317,24827472
6.24942,5029389
6.25568,774833
6.26193,342179
6.26818,296790
6.27445,313290
6.2807,354985
6.28695,351392
6.29322,293941
6.29947,235574
6.30572,189279
6.31198,180512
6.31823,202372
6.32448,260579
6.33075,308853
6.337,304008
6.34325,280441
6.34952,271039
6.35577,276272
6.36202,271303
6.36827,275634
6.37453,281710
6.38078,264374
6.38703,219316
6.3933,166194
6.39955,142953
6.4058,134960
6.41207,139173
6.41832,145745
6.42457,158775
6.43083,158468
6.43708,156159
6.44333,145750
6.4496,142540
6.45585,134610
6.4621,135201
6.46837,149519
6.47462,165213
6.48087,201997
6.48713,257529
6.49338,317408
6.49963,373813
6.50588,381807
6.51215,350017
6.5184,273557
6.52465,217213
6.53092,181383
6.53717,158142
6.54342,138048
6.54968,124737
6.55593,120413
6.56218,126729
6.56845,171884
6.5747,355362
6.58095,798122
6.58722,1300330
6.59347,1450757
6.59972,1115884
6.60598,667367
6.61223,385946
6.61848,254755
6.62475,196894
6.631,166553
6.63725,155567
6.6435,147949
6.64977,142465
6.65602,137166
6.66227,135783
6.66853,130953
6.67478,125017
6.68103,114592
6.6873,112352
6.69355,109353
6.6998,109412
6.70607,108983
6.71232,111284
6.71857,116511
6.72483,115581
6.73108,121277
6.73733,131829
6.7436,136902
6.74985,139875
6.7561,149638
6.76237,148995
6.76862,155073
6.77487,177010
6.78112,222141
6.78738,272101
6.79363,270431
6.79988,231273
6.80615,188456
6.8124,162129
6.81865,147814
6.82492,161824
6.83117,227237
6.83742,388091
6.84368,657635
6.84993,875594
6.85618,871879
6.86245,675684
6.8687,505779
6.87495,463681
6.88122,433882
6.88747,323718
6.89372,228159
6.89998,197738
6.90623,237662
6.91248,279477
6.91873,273273
6.925,213233
6.93125,157323
6.9375,125321
6.94377,121311
6.95002,122208
6.95627,120537
6.96253,113570
6.96878,106601
6.97503,102623
6.9813,96709
6.98755,95861
6.9938,96049
7.00007,95058
7.00632,92338
7.01257,98646
7.01883,109651
7.02508,136963
7.03133,184848
7.0376,254593
7.04385,399408
7.0501,708831
7.05635,1147198
7.06262,1454130
7.06887,1301088
7.07512,853893
7.08138,469261
7.08763,299116
7.09388,254698
7.10015,240942
7.1064,246410
7.11265,284964
7.11892,306986
7.12517,266469
7.13142,193840
7.13768,154505
7.14393,161441
7.15018,192795
7.15645,231506
7.1627,307047
7.16895,550171
7.17522,1262043
7.18147,3038579
7.18772,6375582
7.19397,11686381
7.20023,18377244
7.20648,26254868
7.21273,34901940
7.219,42341900
7.22525,47392200
7.2315,46249564
7.23777,33354684
7.24402,12846110
7.25027,3493504
7.25653,2048994
7.26278,1919285
7.26903,1392377
7.2753,776328
7.28155,391673
7.2878,245110
7.29407,210275
7.30032,208057
7.30657,209794
7.31283,200472
7.31908,197514
7.32533,186442
7.33158,166303
7.33785,131413
7.3441,108874
7.35035,96447
7.35662,93308
7.36287,94940
7.36912,98705
7.37538,116316
7.38163,183248
7.38788,326626
7.39415,515118
7.4004,600067
7.40665,502106
7.41292,310773
7.41917,175200
7.42542,116122
7.43168,102353
7.43793,96747
7.44418,97528
7.45045,100182
7.4567,98456
7.46295,107922
7.4692,114866
7.47547,117935
7.48172,122798
7.48797,109593
7.49423,99464
7.50048,92802
7.50673,92720
7.513,88550
7.51925,91189
7.5255,131795
7.53177,336400
7.53802,964022
7.54427,2150323
7.55053,3234036
7.55678,3258939
7.56303,2332190
7.5693,1249099
7.57555,636426
7.5818,452397
7.58807,438676
7.59432,451488
7.60057,421576
7.60682,346066
7.61308,244526
7.61933,170826
7.62558,146882
7.63185,152971
7.6381,172929
7.64435,177049
7.65062,164461
7.65687,152280
7.66312,143439
7.66938,167897
7.67563,231242
7.68188,286775
7.68815,299206
7.6944,290442
7.70065,361501
7.70692,798816
7.71317,2052168
7.71942,4648360
7.72568,8363778
7.73193,12484133
7.73818,15838484
7.74443,17672756
7.7507,17331560
7.75695,14288917
7.7632,10163910
7.76947,6978065
7.77572,5382294
7.78197,4360246
7.78823,3348703
7.79448,2275568
7.80073,1413806
7.807,765913
7.81325,362467
7.8195,178812
7.82577,125787
7.83202,111880
7.83827,111246
7.84453,108953
7.85078,113155
7.85703,123526
7.8633,159636
7.86955,209418
7.8758,261866
7.88205,280415
7.88832,258027
7.89457,221143
7.90082,176264
7.90708,146832
7.91333,153037
7.91958,258681
7.92585,594691
7.9321,1344580
7.93835,2360563
7.94462,3104700
7.95087,3237656
7.95712,3040934
7.96338,3184872
7.96963,3278049
7.97588,2855686
7.98215,2063059
7.9884,1280733
7.99465,741058
8.00092,405706
8.00717,217484
8.01342,142444
8.01967,133196
8.02593,147362
8.03218,167785
8.03843,176898
8.0447,176304
8.05095,155253
8.0572,123053
8.06347,107376
8.06972,104448
8.07597,102570
8.08223,108932
8.08848,137355
8.09473,249873
8.101,542023
8.10725,1053685
8.1135,1673891
8.11977,2042896
8.12602,1833604
8.13227,1519685
8.13853,1958229
8.14478,4023751
8.15103,7447135
8.15728,11068997
8.16355,12764540
8.1698,11119976
8.17605,6639489
8.18232,2686257
8.18857,858794
8.19482,327406
8.20108,215626
8.20733,189030
8.21358,186440
8.21985,205724
8.2261,244398
8.23235,289161
8.23862,302787
8.24487,273863
8.25112,217224
8.25738,161008
8.26363,131334
8.26988,162449
8.27615,371602
8.2824,1166560
8.28865,3398383
8.2949,7897655
8.30117,15067501
8.30742,23935600
8.31367,31936642
8.31993,36917552
8.32618,36366632
8.33243,25336772
8.3387,9819536
8.34495,2417349
8.3512,795684
8.35747,566212
8.36372,493715
8.36997,414259
8.37623,335434
8.38248,291533
8.38873,301725
8.395,347564
8.40125,443680
8.4075,543321
8.41377,604291
8.42002,576017
8.42627,488152
8.43253,414490
8.43878,357644
8.44503,341263
8.45128,374317
8.45755,507102
8.4638,861216
8.47005,1466609
8.47632,1994460
8.48257,2024526
8.48882,1570177
8.49508,1033582
8.50133,699138
8.50758,517604
8.51385,422766
8.5201,373053
8.52635,372723
8.53262,434801
8.53887,644757
8.54512,1055017
8.55138,1566752
8.55763,1873973
8.56388,1732519
8.57015,1254290
8.5764,755642
8.58265,421926
8.5889,277235
8.59517,233931
8.60142,226274
8.60767,222452
8.61393,220427
8.62018,224422
8.62643,250534
8.6327,320838
8.63895,446894
8.6452,599560
8.65147,711868
8.65772,725203
8.66397,664932
8.67023,554869
8.67648,412146
8.68273,294877
8.689,207421
8.69525,172979
8.7015,168016
8.70777,174720
8.71402,193611
8.72027,243890
8.72652,365644
8.73278,656581
8.73903,1183373
8.74528,1923640
8.75155,2691779
8.7578,3162832
8.76405,3096116
8.77032,2666750
8.77657,2045827
8.78282,1491903
8.78908,964200
8.79533,620059
8.80158,446868
8.80785,379967
8.8141,350409
8.82035,313509
8.82662,283160
8.83287,301708
8.83912,368312
8.84538,451441
8.85163,443301
8.85788,351454
8.86413,248328
8.8704,180191
8.87665,153951
8.8829,149981
8.88917,163558
8.89542,189446
8.90167,213528
8.90793,224299
8.91418,209193
8.92043,188335
8.9267,171684
8.93295,161270
8.9392,156039
8.94547,148921
8.95172,147286
8.95797,151527
8.96423,156830
8.97048,159828
8.97673,154657
8.983,157537
8.98925,177042
8.9955,215776
9.00175,259307
9.00802,306780
9.01427,323196
9.02052,300893
9.02678,254744
9.03303,199012
9.03928,160726
9.04555,140777
9.0518,123853
9.05805,115459
9.06432,113820
9.07057,119039
9.07682,123066
9.08308,128862
9.08933,131265
9.09558,133605
9.10185,137325
9.1081,138002
9.11435,154538
9.12062,195486
9.12687,269243
9.13312,404944
9.13937,757592
9.14563,1925333
9.15188,4874968
9.15813,10545229
9.1644,17882424
9.17065,23700000
9.1769,25212222
9.18317,19150558
9.18942,8973518
9.19567,2421272
9.20193,642626
9.20818,337359
9.21443,283530
9.2207,274790
9.22695,271044
9.2332,275324
9.23947,293721
9.24572,307282
9.25197,305673
9.25823,299199
9.26448,338079
9.27073,399513
9.27698,421753
9.28325,408080
9.2895,404748
9.29575,496953
9.30202,711134
9.30827,943184
9.31452,1005581
9.32078,859739
9.32703,668088
9.33328,724079
9.33955,1220041
9.3458,2283357
9.35205,3744452
9.35832,4916039
9.36457,4864449
9.37082,3495146
9.37708,1864221
9.38333,800132
9.38958,396648
9.39585,281438
9.4021,284198
9.40835,284479
9.4146,274272
9.42087,255442
9.42712,232028
9.43337,212482
9.43963,203910
9.44588,200888
9.45213,203685
9.4584,201924
9.46465,201972
9.4709,213859
9.47717,214714
9.48342,210891
9.48967,205183
9.49593,203960
9.50218,214178
9.50843,232573
9.5147,239418
9.52095,234252
9.5272,229907
9.53347,222675
9.53972,268507
9.54597,395824
9.55222,686415
9.55848,1106530
9.56473,1496393
9.57098,1668403
9.57725,1657699
9.5835,1516157
9.58975,1331797
9.59602,1257645
9.60227,1497693
9.60852,2164496
9.61478,3160285
9.62103,4352172
9.62728,5559427
9.63355,6759501
9.6398,8141855
9.64605,9359398
9.65232,10491560
9.65857,11509094
9.66482,12886242
9.67108,13896108
9.67733,15051061
9.68358,16161348
9.68983,17555512
9.6961,19105788
9.70235,21071188
9.7086,24004470
9.71487,28934778
9.72112,34699224
9.72737,40749848
9.73363,46023588
9.73988,47438824
9.74613,42985256
9.7524,32564606
9.75865,24155498
9.7649,21271434
9.77117,21313690
9.77742,22921662
9.78367,26447296
9.78993,30134926
9.79618,32137966
9.80243,31528734
9.8087,27942488
9.81495,24136556
9.8212,21536986
9.82745,18922858
9.83372,7755956
9.83997,992078
9.84622,290647
9.85248,235832
9.85873,220585
9.86498,209743
9.87125,193725
9.8775,181590
9.88375,214440
9.89002,317734
9.89627,537931
9.90252,801552
9.90878,962436
9.91503,938619
9.92128,790614
9.92755,652328
9.9338,596434
9.94005,675809
9.94632,1090369
9.95257,1925336
9.95882,2933920
9.96507,3250448
9.97133,2627645
9.97758,1555140
9.98383,668995
9.9901,296015
9.99635,191016
10.0026,181028
10.0089,215927
10.0151,261544
10.0214,275605
10.0276,259335
10.0339,241795
10.0401,255762
10.0464,324730
10.0527,428055
10.0589,507119
10.0652,528254
10.0714,509009
10.0777,476264
10.0839,453286
10.0902,425307
10.0964,392933
10.1027,422964
10.109,632579
10.1152,1212814
10.1215,2131523
10.1277,2760157
10.134,2601270
10.1402,1979072
10.1465,1658977
10.1527,2484569
10.159,4587464
10.1653,6978796
10.1715,8161588
10.1778,6825447
10.184,4183502
10.1903,2559118
10.1965,3301437
10.2028,6547795
10.209,11241974
10.2153,16720523
10.2216,22270906
10.2278,26275970
10.2341,29166272
10.2403,28890484
10.2466,24072912
10.2528,14890221
10.2591,6310395
10.2653,1938476
10.2716,605760
10.2778,301055
10.2841,228275
10.2904,189033
10.2966,172298
10.3029,170306
10.3091,180934
10.3154,202426
10.3216,232834
10.3279,255622
10.3341,252439
10.3404,221257
10.3467,194680
10.3529,192315
10.3592,234402
10.3654,315082
10.3717,370382
10.3779,361132
10.3842,283395
10.3904,207549
10.3967,163546
10.403,156874
10.4092,211148
10.4155,389542
10.4217,781503
10.428,1364048
10.4342,1838033
10.4405,1809125
10.4467,1352529
10.453,761967
10.4593,383103
10.4655,297043
10.4718,444605
10.478,801111
10.4843,1213725
10.4905,1406837
10.4968,1187430
10.503,781288
10.5093,399301
10.5155,195796
10.5218,127156
10.5281,104783
10.5343,102798
10.5406,110615
10.5468,137608
10.5531,175278
10.5593,235964
10.5656,361389
10.5718,774395
10.5781,2062645
10.5844,5607023
10.5906,13365481
10.5969,26048216
10.6031,40177380
10.6094,51715300
10.6156,59688412
10.6219,62776360
10.6281,57528200
10.6344,40945796
10.6407,18661072
10.6469,5692547
10.6532,1498784
10.6594,457474
10.6657,210274
10.6719,150424
10.6782,137114
10.6844,139142
10.6907,164327
10.697,241802
10.7032,383913
10.7095,541486
10.7157,610930
10.722,549922
10.7282,421675
10.7345,315393
10.7407,236995
10.747,188438
10.7533,165888
10.7595,164895
10.7658,170255
10.772,178326
10.7783,191290
10.7845,199884
10.7908,201974
10.797,200414
10.8033,183059
10.8095,169523
10.8158,161843
10.8221,161072
10.8283,152222
10.8346,144611
10.8408,128577
10.8471,116830
10.8533,112605
10.8596,110816
10.8658,107222
10.8721,105849
10.8784,109910
10.8846,108052
10.8909,112461
10.8971,120938
10.9034,128795
10.9096,141381
10.9159,150215
10.9221,171089
10.9284,209271
10.9347,268514
10.9409,343985
10.9472,377758
10.9534,356877
10.9597,274454
10.9659,204506
10.9722,192233
10.9784,282334
10.9847,547146
10.991,949791
10.9972,1257950
11.0035,1214699
11.0097,888750
11.016,500370
11.0222,290088
11.0285,229093
11.0347,249018
11.041,324472
11.0473,410445
11.0535,466938
11.0598,431805
11.066,325284
11.0723,213575
11.0785,146000
11.0848,117472
11.091,114801
11.0973,112166
11.1035,116680
11.1098,113481
11.1161,114679
11.1223,115539
11.1286,120845
11.1348,145440
11.1411,185002
11.1473,211378
11.1536,224098
11.1598,212583
11.1661,191056
11.1724,170001
11.1786,151728
11.1849,131470
11.1911,121380
11.1974,121679
11.2036,139615
11.2099,173430
11.2161,213324
11.2224,251723
11.2287,278962
11.2349,307037
11.2412,316901
11.2474,290671
11.2537,256810
11.2599,229988
11.2662,238285
11.2724,278280
11.2787,363190
11.285,459146
11.2912,567425
11.2975,622359
11.3037,567496
11.31,473822
11.3162,481790
11.3225,778987
11.3287,1431824
11.335,2090969
11.3412,2283191
11.3475,1746507
11.3538,990402
11.36,473141
11.3663,237031
11.3725,170170
11.3788,152546
11.385,160368
11.3913,172168
11.3975,165086
11.4038,145282
11.4101,128088
11.4163,115048
11.4226,104066
11.4288,97481
11.4351,100298
11.4413,100368
11.4476,100529
11.4538,105289
11.4601,112679
11.4664,126424
11.4726,145505
11.4789,174397
11.4851,221980
11.4914,309101
11.4976,424068
11.5039,520356
11.5101,537474
11.5164,449708
11.5227,327829
11.5289,240047
11.5352,206574
11.5414,213409
11.5477,229534
11.5539,231842
11.5602,229546
11.5664,222919
11.5727,216846
11.579,219268
11.5852,213982
11.5915,213575
11.5977,218270
11.604,230343
11.6102,229441
11.6165,219112
11.6227,192907
11.629,164223
11.6352,141396
11.6415,128550
11.6478,122415
11.654,120866
11.6603,122610
11.6665,123862
11.6728,145293
11.679,262567
11.6853,663601
11.6915,1660888
11.6978,3300665
11.7041,4862136
11.7103,5176896
11.7166,3932687
11.7228,2195893
11.7291,1022895
11.7353,559933
11.7416,423638
11.7478,346517
11.7541,281997
11.7604,262428
11.7666,256068
11.7729,237619
11.7791,214976
11.7854,178836
11.7916,148451
11.7979,131587
11.8041,144142
11.8104,179342
11.8167,234653
11.8229,292374
11.8292,312609
11.8354,293818
11.8417,255265
11.8479,241901
11.8542,259453
11.8604,298936
11.8667,321466
11.873,299336
11.8792,255806
11.8855,236827
11.8917,234795
11.898,247363
11.9042,243805
11.9105,243732
11.9167,239403
11.923,257883
11.9292,269608
11.9355,260227
11.9418,222908
11.948,177490
11.9543,146707
11.9605,125190
11.9668,114979
11.973,118879
11.9793,126329
11.9855,142108
11.9918,177925
11.9981,231638
12.0043,282276
12.0106,308071
12.0168,290393
12.0231,240148
12.0293,197111
12.0356,170843
12.0418,165370
12.0481,177287
12.0544,181298
12.0606,175622
12.0669,173831
12.0731,188142
12.0794,208336
12.0856,224744
12.0919,214364
12.0981,196306
12.1044,173886
12.1107,176132
12.1169,195175
12.1232,238812
12.1294,302254
12.1357,412587
12.1419,727851
12.1482,1632436
12.1544,3563980
12.1607,6015502
12.1669,7316266
12.1732,7050397
12.1795,5218255
12.1857,3514465
12.192,3303272
12.1982,4160926
12.2045,4809938
12.2107,4174590
12.217,2462258
12.2232,1067778
12.2295,400147
12.2358,198328
12.242,160907
12.2483,173920
12.2545,194010
12.2608,204133
12.267,194761
12.2733,168909
12.2795,153548
12.2858,146949
12.2921,153941
12.2983,155224
12.3046,154511
12.3108,145731
12.3171,148258
12.3233,140688
12.3296,140256
12.3358,137036
12.3421,148892
12.3484,187725
12.3546,256110
12.3609,322850
12.3671,363489
12.3734,361085
12.3796,308782
12.3859,244627
12.3921,193792
12.3984,168672
12.4047,154350
12.4109,143326
12.4172,137451
12.4234,135950
12.4297,132988
12.4359,135307
12.4422,132978
12.4484,136294
12.4547,145065
12.4609,164488
12.4672,193465
12.4735,231292
12.4797,260040
12.486,260379
12.4922,224077
12.4985,187266
12.5047,188683
12.511,232947
12.5172,329417
12.5235,451782
12.5298,542127
12.536,555427
12.5423,486489
12.5485,404927
12.5548,332347
12.561,307744
12.5673,315596
12.5735,324397
12.5798,280917
12.5861,239083
12.5923,229576
12.5986,325465
12.6048,572002
12.6111,957772
12.6173,1384896
12.6236,1508340
12.6298,1291746
12.6361,856753
12.6424,508135
12.6486,358422
12.6549,327956
12.6611,324266
12.6674,300143
12.6736,289618
12.6799,274901
12.6861,251673
12.6924,217929
12.6987,194775
12.7049,181614
12.7112,178675
12.7174,206131
12.7237,315246
12.7299,679976
12.7362,1572739
12.7424,3006325
12.7487,4571593
12.7549,5361667
12.7612,5296268
12.7675,4090516
12.7737,2898532
12.78,2197423
12.7862,1831369
12.7925,1501011
12.7987,1118425
12.805,755419
12.8112,530053
12.8175,412725
12.8238,333670
12.83,290967
12.8363,302400
12.8425,338868
12.8488,390168
12.855,397355
12.8613,356571
12.8675,290616
12.8738,223792
12.8801,184023
12.8863,169887
12.8926,161143
12.8988,165817
12.9051,179025
12.9113,195351
12.9176,250337
12.9238,347010
12.9301,515521
12.9364,735616
12.9426,917830
12.9489,944386
12.9551,821298
12.9614,617422
12.9676,466765
12.9739,398426
12.9801,395829
12.9864,408969
12.9927,394822
12.9989,341319
13.0052,294397
13.0114,261520
13.0177,246512
13.0239,258850
13.0302,266742
13.0364,257640
13.0427,241139
13.0489,227793
13.0552,209440
13.0615,196723
13.0677,197542
13.074,207822
13.0802,216457
13.0865,230980
13.0927,261295
13.099,291598
13.1052,311495
13.1115,305183
13.1178,280500
13.124,250055
13.1303,232854
13.1365,221378
13.1428,216308
13.149,223038
13.1553,226868
13.1615,241979
13.1678,264131
13.1741,325220
13.1803,424389
13.1866,498317
13.1928,525746
13.1991,494007
13.2053,425626
13.2116,371550
13.2178,338907
13.2241,358948
13.2304,367865
13.2366,376383
13.2429,365012
13.2491,346199
13.2554,320589
13.2616,287881
13.2679,262320
13.2741,264180
13.2804,301577
13.2866,384473
13.2929,452240
13.2992,485074
13.3054,445448
13.3117,359015
13.3179,299286
13.3242,291287
13.3304,347020
13.3367,492154
13.3429,688885
13.3492,860742
13.3555,965054
13.3617,927090
13.368,916124
13.3742,1132012
13.3805,1667743
13.3867,2607985
13.393,3665960
13.3992,4410419
13.4055,4510203
13.4118,3901763
13.418,2724328
13.4243,1693518
13.4305,1142720
13.4368,1007550
13.443,1063161
13.4493,1124252
13.4555,1187897
13.4618,1264572
13.4681,1434292
13.4743,1579554
13.4806,1603667
13.4868,1396005
13.4931,1012972
13.4993,669122
13.5056,460432
13.5118,378303
13.5181,360673
13.5244,363122
13.5306,386685
13.5369,405113
13.5431,424135
13.5494,430620
13.5556,455799
13.5619,475183
13.5681,532344
13.5744,592254
13.5806,701984
13.5869,846965
13.5932,1046055
13.5994,1198378
13.6057,1281304
13.6119,1226043
13.6182,1130756
13.6244,1038926
13.6307,981549
13.6369,942060
13.6432,908193
13.6495,839774
13.6557,772372
13.662,712523
13.6682,677798
13.6745,645210
13.6807,605684
13.687,546279
13.6932,480802
13.6995,462994
13.7058,441480
13.712,446473
13.7183,447379
13.7245,466302
13.7308,512712
13.737,575789
13.7433,636273
13.7495,678057
13.7558,641790
13.7621,550414
13.7683,457782
13.7746,394400
13.7808,366738
13.7871,370227
13.7933,414449
13.7996,487209
13.8058,596430
13.8121,708348
13.8184,746463
13.8246,698827
13.8309,590076
13.8371,519425
13.8434,528590
13.8496,638660
13.8559,747925
13.8621,796118
13.8684,729638
13.8746,563720
13.8809,407808
13.8872,317131
13.8934,287614
13.8997,293992
13.9059,322691
13.9122,366193
13.9184,423472
13.9247,481717
13.9309,528008
13.9372,575454
13.9435,594210
13.9497,572073
13.956,499333
13.9622,403702
13.9685,342482
13.9747,329697
13.981,349710
13.9872,367304
13.9935,383853
13.9998,405461
14.006,441380
14.0123,506945
14.0185,592514
14.0248,652506
14.031,627232
14.0373,550261
14.0435,448187
14.0498,363810
14.0561,333269
14.0623,344906
14.0686,421949
14.0748,533001
14.0811,696587
14.0873,854478
14.0936,947155
14.0998,930124
14.1061,784537
14.1123,655789
14.1186,535453
14.1249,428639
14.1311,354722
14.1374,318309
14.1436,293735
14.1499,292529
14.1561,297668
14.1624,299714
14.1686,306914
14.1749,315165
14.1812,300473
14.1874,291109
14.1937,269691
14.1999,259067
14.2062,246583
14.2124,238381
14.2187,244775
14.2249,252006
14.2312,266707
14.2375,277430
14.2437,297646
14.25,314406
14.2562,327918
14.2625,334546
14.2687,334376
14.275,328833
14.2812,318205
14.2875,310491
14.2938,305597
14.3,294265
14.3063,288036
14.3125,287528
14.3188,274292
14.325,272576
14.3313,292002
14.3375,341398
14.3438,412692
14.3501,498420
14.3563,558987
14.3626,583314
14.3688,571296
14.3751,513704
14.3813,467163
14.3876,437714
14.3938,444105
14.4001,443615
14.4063,405967
14.4126,357293
14.4189,315863
14.4251,297144
14.4314,292272
14.4376,273118
14.4439,240580
14.4501,215196
14.4564,202870
14.4626,212486
14.4689,240406
14.4752,279746
14.4814,317853
14.4877,326443
14.4939,328086
14.5002,319680
14.5064,308702
14.5127,320662
14.5189,376336
14.5252,537323
14.5315,862140
14.5377,1336830
14.544,1778756
14.5502,1913825
14.5565,1628767
14.5627,1132656
14.569,664696
14.5752,405594
14.5815,307455
14.5878,293612
14.594,305350
14.6003,318576
14.6065,306317
14.6128,289653
14.619,271527
14.6253,292269
14.6315,408455
14.6378,727749
14.6441,1291175
14.6503,2010377
14.6566,2637911
14.6628,2830482
14.6691,2431998
14.6753,1666746
14.6816,964101
14.6878,517764
14.6941,326036
14.7003,251369
14.7066,232379
14.7129,227338
14.7191,227206
14.7254,236028
14.7316,238011
14.7379,238812
14.7441,240821
14.7504,245623
14.7566,260475
14.7629,279509
14.7692,318604
14.7754,392046
14.7817,505038
14.7879,638316
14.7942,734600
14.8004,809533
14.8067,855482
14.8129,864649
14.8192,758384
14.8255,580506
14.8317,398303
14.838,282207
14.8442,236204
14.8505,225460
14.8567,221965
14.863,221873
14.8692,213214
14.8755,201602
14.8818,199105
14.888,206333
14.8943,231914
14.9005,275516
14.9068,331565
14.913,375882
14.9193,395645
14.9255,370461
14.9318,317750
14.938,280528
14.9443,282802
14.9506,323336
14.9568,353875
14.9631,351727
14.9693,323112
14.9756,296040
14.9818,292038
14.9881,291133
14.9943,299413
15.0006,291273
15.0069,264451
15.0131,252036
15.0194,267034
15.0256,308374
15.0319,364309
15.0381,424292
15.0444,482107
15.0506,526866
15.0569,524565
15.0632,462635
15.0694,348015
15.0757,249656
15.0819,201547
15.0882,179660
15.0944,181477
15.1007,190314
15.1069,218458
15.1132,248843
15.1195,275442
15.1257,293630
15.132,303012
15.1382,333549
15.1445,382176
15.1507,404193
15.157,415772
15.1632,405381
15.1695,460185
15.1758,590637
15.182,775142
15.1883,884365
15.1945,879971
15.2008,734173
15.207,561053
15.2133,413260
15.2195,328606
15.2258,279771
15.232,249974
15.2383,224752
15.2446,215369
15.2508,215914
15.2571,235146
15.2633,282830
15.2696,410772
15.2758,652069
15.2821,973713
15.2883,1268702
15.2946,1410782
15.3009,1443800
15.3071,1511036
15.3134,1555154
15.3196,1577359
15.3259,1439561
15.3321,1296342
15.3384,1097005
15.3446,942084
15.3509,823260
15.3572,758162
15.3634,692833
15.3697,633138
15.3759,561830
15.3822,507957
15.3884,472922
15.3947,441386
15.4009,443338
15.4072,477749
15.4135,544782
15.4197,609648
15.426,623977
15.4322,604249
15.4385,566903
15.4447,501079
15.451,439458
15.4572,408035
15.4635,417217
15.4698,440322
15.476,462895
15.4823,454670
15.4885,404438
15.4948,344902
15.501,307297
15.5073,289405
15.5135,278427
15.5198,277693
15.526,285234
15.5323,294178
15.5386,302062
15.5448,289001
15.5511,277073
15.5573,261891
15.5636,236869
15.5698,224132
15.5761,216080
15.5823,222299
15.5886,233638
15.5949,261941
15.6011,292549
15.6074,331962
15.6136,356914
15.6199,352894
15.6261,315314
15.6324,281459
15.6386,262923
15.6449,261357
15.6512,271128
15.6574,291658
15.6637,305144
15.6699,321751
15.6762,327002
15.6824,350557
15.6887,367946
15.6949,402694
15.7012,450932
15.7075,499443
15.7137,512812
15.72,448846
15.7262,350415
15.7325,267562
15.7387,220875
15.745,200116
15.7512,190081
15.7575,188116
15.7637,184505
15.77,181332
15.7763,187225
15.7825,193409
15.7888,220054
15.795,250416
15.8013,268443
15.8075,277568
15.8138,271392
15.82,256033
15.8263,260953
15.8326,307160
15.8388,381170
15.8451,434376
15.8513,418906
15.8576,348341
15.8638,262341
15.8701,214810
15.8763,222530
15.8826,262492
15.8889,320367
15.8951,355161
15.9014,358698
15.9076,353591
15.9139,333763
15.9201,314506
15.9264,319965
15.9326,356106
15.9389,407483
15.9452,464252
15.9514,490868
15.9577,466628
15.9639,426642
15.9702,397496
15.9764,382598
15.9827,363786
15.9889,351554
15.9952,370093
16.0014,385393
16.0077,398312
16.014,428687
16.0202,460585
16.0265,519119
16.0327,646364
16.039,936995
16.0452,1470425
16.0515,2030213
16.0577,2232550
16.064,1872476
16.0703,1233227
16.0765,759103
16.0828,500213
16.089,425829
16.0953,492250
16.1015,699503
16.1078,1085580
16.114,1511082
16.1203,1626354
16.1266,1333471
16.1328,819112
16.1391,449292
16.1453,286020
16.1516,236579
16.1578,244053
16.1641,279955
16.1703,337068
16.1766,386250
16.1828,424262
16.1891,422314
16.1954,390994
16.2016,348044
16.2079,321505
16.2141,306859
16.2204,295853
16.2266,277302
16.2329,285453
16.2391,332071
16.2454,432390
16.2517,583003
16.2579,807802
16.2642,1080421
16.2704,1242268
16.2767,1248635
16.2829,1056681
16.2892,795761
16.2954,562706
16.3017,405857
16.308,309033
16.3142,269811
16.3205,266859
16.3267,273007
16.333,282007
16.3392,287151
16.3455,294797
16.3517,311712
16.358,328342
16.3642,334908
16.3705,327590
16.3768,308419
16.383,291476
16.3893,280791
16.3955,283456
16.4018,279797
16.408,278898
16.4143,286546
16.4205,306803
16.4268,332089
16.4331,367961
16.4393,409784
16.4456,481926
16.4518,609571
16.4581,736868
16.4643,775591
16.4706,695816
16.4768,557763
16.4831,422739
16.4894,328674
16.4956,276258
16.5019,255544
16.5081,252478
16.5144,273818
16.5206,287470
16.5269,276917
16.5331,249387
16.5394,219030
16.5456,210852
16.5519,225854
16.5582,251019
16.5644,280731
16.5707,297917
16.5769,297291
16.5832,290944
16.5894,296352
16.5957,286730
16.6019,272545
16.6082,267017
16.6145,264324
16.6207,256674
16.627,243909
16.6332,241000
16.6395,235534
16.6457,231389
16.652,223336
16.6582,213973
16.6645,202867
16.6708,205606
16.677,223084
16.6833,264908
16.6895,320387
16.6958,351805
16.702,353086
16.7083,307840
16.7145,247203
16.7208,217532
16.7271,220257
16.7333,259121
16.7396,332179
16.7458,468931
16.7521,663329
16.7583,1006030
16.7646,1476633
16.7708,2054391
16.7771,2595261
16.7833,3073837
16.7896,3436447
16.7959,3439434
16.8021,3366049
16.8084,3816831
16.8146,5899679
16.8209,10067088
16.8272,16657031
16.8334,25477084
16.8396,34184268
16.8459,41649936
16.8522,45823892
16.8584,44006896
16.8647,31416210
16.8709,15146499
16.8772,5555107
16.8834,1738624
16.8897,556680
16.8959,325296
16.9022,297878
16.9085,337392
16.9147,468775
16.921,772634
16.9272,1319244
16.9335,2208663
16.9397,3000794
16.946,3380467
16.9522,3017997
16.9585,2307270
16.9648,1449495
16.971,823000
16.9773,514196
16.9835,406677
16.9898,355189
16.996,334292
17.0023,316063
17.0086,301424
17.0148,296830
17.021,278537
17.0273,264028
17.0336,245051
17.0398,241722
17.0461,268596
17.0523,391094
17.0586,775977
17.0649,1880611
17.0711,4101792
17.0773,6951580
17.0836,8808530
17.0899,8833739
17.0961,6863018
17.1024,4910846
17.1086,3806220
17.1149,2985933
17.1212,2093652
17.1274,1387713
17.1336,982702
17.1399,817716
17.1462,785669
17.1524,850925
17.1587,933469
17.1649,977738
17.1712,1012844
17.1774,1173366
17.1837,1581851
17.19,2498152
17.1962,4429316
17.2025,7573450
17.2087,11316501
17.215,13394454
17.2212,11838486
17.2275,7304558
17.2337,3510719
17.24,1495274
17.2463,900038
17.2525,786853
17.2588,787825
17.265,766297
17.2713,723364
17.2775,698599
17.2838,650907
17.29,603746
17.2963,549129
17.3026,495053
17.3088,450787
17.315,416428
17.3213,400061
17.3276,435144
17.3338,500524
17.3401,575407
17.3463,640113
17.3526,670265
17.3589,657031
17.3651,638855
17.3714,572090
17.3776,494748
17.3839,407041
17.3901,342601
17.3964,302780
17.4026,282716
17.4089,269180
17.4152,273644
17.4214,291208
17.4277,350568
17.4339,488743
17.4402,741048
17.4464,1026534
17.4527,1222480
17.4589,1144283
17.4652,1025724
17.4714,1100224
17.4777,1798625
17.484,3834270
17.4902,8506927
17.4965,17130080
17.5027,28512750
17.509,38263556
17.5152,44952120
17.5215,45667680
17.5277,37627016
17.534,19855430
17.5403,7021486
17.5465,3414621
17.5528,2971641
17.559,3003127
17.5653,2817146
17.5715,2287621
17.5778,1903754
17.584,2065391
17.5903,3432846
17.5966,6611256
17.6028,12447152
17.6091,20212934
17.6153,27407050
17.6216,32585322
17.6278,32424838
17.6341,26814266
17.6403,15902739
17.6466,7606250
17.6529,4115338
17.6591,3859045
17.6654,4590860
17.6716,5210049
17.6779,5499009
17.6841,6375776
17.6904,8163668
17.6966,9664157
17.7029,9462029
17.7091,7768154
17.7154,5227534
17.7217,3530328
17.7279,2627842
17.7342,2068898
17.7404,1610862
17.7467,1585230
17.7529,2414105
17.7592,4586202
17.7654,8544064
17.7717,14733429
17.778,23314040
17.7842,34029420
17.7905,45413568
17.7967,56630192
17.803,64977668
17.8092,70462680
17.8155,72813232
17.8217,72014424
17.828,68760528
17.8343,65836772
17.8405,69628368
17.8468,55697448
17.853,28226976
17.8593,25843284
17.8655,27440746
17.8718,27462756
17.878,22845304
17.8843,13620592
17.8906,6341836
17.8968,3699356
17.9031,4490334
17.9093,7745130
17.9156,13228590
17.9218,19674926
17.9281,26270550
17.9343,30982964
17.9406,29242174
17.9469,17605806
17.9531,5919317
17.9594,2526604
17.9656,4131765
17.9719,9773518
17.9781,20133310
17.9844,33073318
17.9906,44220232
17.9969,49641640
18.0031,42862000
18.0094,24418516
18.0157,8002929
18.0219,2549802
18.0282,2495340
18.0344,4177445
18.0407,5843028
18.0469,5833348
18.0532,4033049
18.0594,1984472
18.0657,846358
18.072,477045
18.0782,388859
18.0845,389950
18.0907,412348
18.097,458187
18.1032,572311
18.1095,782719
18.1157,1133960
18.122,1478438
18.1283,1523250
18.1345,1256804
18.1408,909972
18.147,650683
18.1533,512018
18.1595,458853
18.1658,503745
18.172,662156
18.1783,965720
18.1846,1271187
18.1908,1376067
18.1971,1202184
18.2033,1003049
18.2096,869370
18.2158,802231
18.2221,704631
18.2283,607357
18.2346,538453
18.2409,494721
18.2471,499059
18.2534,523300
18.2596,556148
18.2659,576700
18.2721,618105
18.2784,655053
18.2846,896593
18.2909,1527669
18.2971,2609736
18.3034,3548360
18.3097,3700706
18.3159,2940155
18.3222,1765939
18.3284,977195
18.3347,609998
18.3409,481355
18.3472,456301
18.3534,441533
18.3597,416375
18.366,384456
18.3722,356907
18.3785,349516
18.3847,381972
18.391,397298
18.3972,392456
18.4035,365370
18.4097,340777
18.416,330806
18.4223,330160
18.4285,334395
18.4348,331299
18.441,324048
18.4473,312738
18.4535,300279
18.4598,288376
18.466,280856
18.4723,277035
18.4786,284332
18.4848,340491
18.4911,590509
18.4973,1550681
18.5036,4131802
18.5098,9168683
18.5161,15185316
18.5223,19027116
18.5286,17979972
18.5348,11824071
18.5411,5590448
18.5474,2135237
18.5536,837546
18.5599,534619
18.5661,469098
18.5724,500468
18.5786,674649
18.5849,1156121
18.5911,1874696
18.5974,2248481
18.6037,2095915
18.6099,1532477
18.6162,930904
18.6224,633658
18.6287,542619
18.6349,519464
18.6412,482434
18.6474,432045
18.6537,374241
18.66,332699
18.6662,321131
18.6725,315088
18.6787,334824
18.685,370642
18.6912,426202
18.6975,587965
18.7037,1271075
18.71,3419967
18.7163,8174364
18.7225,15179721
18.7288,24497280
18.735,32582798
18.7413,35516740
18.7475,28365280
18.7538,13047804
18.76,3466603
18.7663,845050
18.7726,429644
18.7788,357640
18.7851,345204
18.7913,329656
18.7976,314182
18.8038,307551
18.8101,299828
18.8163,326370
18.8226,399997
18.8288,502413
18.8351,560912
18.8414,557430
18.8476,479054
18.8539,419988
18.8601,462803
18.8664,653560
18.8726,983874
18.8789,1287513
18.8851,1299581
18.8914,1009076
18.8977,670487
18.9039,470337
18.9102,409759
18.9164,390291
18.9227,367328
18.9289,329425
18.9352,294769
18.9414,271128
18.9477,265229
18.954,267261
18.9602,277610
18.9665,302990
18.9727,319542
18.979,322233
18.9852,338035
18.9915,415476
18.9977,725756
19.004,1364640
19.0102,2145557
19.0165,2628883
19.0228,2370418
19.029,1587482
19.0353,871499
19.0415,540166
19.0478,432756
19.054,378672
19.0603,328259
19.0665,275389
19.0728,228462
19.0791,207855
19.0853,205684
19.0916,208878
19.0978,223757
19.1041,233147
19.1103,232657
19.1166,228360
19.1228,216297
19.1291,202542
19.1354,204875
19.1416,205699
19.1479,225365
19.1541,256944
19.1604,311727
19.1666,407429
19.1729,513570
19.1791,568658
19.1854,523031
19.1916,413518
19.1979,324387
19.2042,265950
19.2104,222650
19.2167,195073
19.2229,185554
19.2292,191558
19.2354,193381
19.2417,192427
19.2479,189446
19.2542,192388
19.2605,191643
19.2667,201658
19.273,204560
19.2792,204226
19.2855,200987
19.2917,197881
19.298,194590
19.3043,184540
19.3105,185114
19.3168,178282
19.323,186488
19.3293,202985
19.3355,233095
19.3418,257104
19.348,272509
19.3543,275951
19.3605,280022
19.3668,281484
19.373,268872
19.3793,253852
19.3856,247447
19.3918,244672
19.3981,229566
19.4043,210495
19.4106,193971
19.4168,184652
19.4231,176196
19.4293,175572
19.4356,179435
19.4419,197328
19.4481,211088
19.4544,218160
19.4606,221259
19.4669,211696
19.4731,200222
19.4794,189195
19.4857,176429
19.4919,175524
19.4982,171887
19.5044,174103
19.5107,179446
19.5169,191972
19.5232,200995
19.5294,211217
19.5357,218523
19.542,217915
19.5482,210440
19.5544,199174
19.5607,199168
19.567,199016
19.5732,196207
19.5795,204894
19.5857,220997
19.592,266102
19.5983,296617
19.6045,321292
19.6107,408645
19.617,817524
19.6233,2236859
19.6295,5552008
19.6358,10737376
19.642,15926532
19.6483,18144172
19.6545,15415844
19.6608,9006381
19.6671,3741905
19.6733,1435747
19.6796,780561
19.6858,605534
19.6921,501888
19.6983,424666
19.7046,364257
19.7108,326860
19.7171,309329
19.7234,313462
19.7296,317577
19.7359,314403
19.7421,310402
19.7484,298683
19.7546,291298
19.7609,289420
19.7671,293259
19.7734,299422
19.7797,328350
19.7859,356268
19.7921,414363
19.7984,477825
19.8047,533682
19.8109,530416
19.8172,463488
19.8234,391584
19.8297,343815
19.836,323162
19.8422,305735
19.8485,308723
19.8547,316950
19.861,338179
19.8672,349526
19.8735,358543
19.8797,351221
19.886,334933
19.8923,323358
19.8985,336858
19.9048,351430
19.911,366857
19.9173,365683
19.9235,333133
19.9298,314836
19.936,321074
19.9423,416625
19.9485,759817
19.9548,1637240
19.9611,2983555
19.9673,4349739
19.9736,4854938
19.9798,3951942
19.9861,2317551
19.9923,1177999
19.9986,710578
20.0048,534518
20.0111,456990
20.0174,418142
20.0236,374406
20.0299,337601
20.0361,324914
20.0424,328036
20.0486,335021
20.0549,341899
20.0611,326454
20.0674,303617
20.0737,270278
20.0799,263652
20.0862,271943
20.0924,274071
20.0987,257280
20.1049,252467
20.1112,239098
20.1174,243215
20.1237,251200
20.13,257871
20.1362,263904
20.1425,260039
20.1487,253283
20.155,233388
20.1612,216144
20.1675,213551
20.1737,218414
20.18,226867
20.1862,247030
20.1925,289423
20.1988,351831
20.205,449432
20.2113,517871
20.2175,508044
20.2238,450881
20.23,383393
20.2363,360380
20.2425,411607
20.2488,499460
20.2551,556322
20.2613,550173
20.2676,506450
20.2738,482155
20.2801,516057
20.2863,544823
20.2926,510668
20.2988,412170
20.3051,326634
20.3114,309953
20.3176,321297
20.3239,329251
20.3301,312384
20.3364,279278
20.3426,255421
20.3489,248904
20.3551,246480
20.3614,244007
20.3677,233392
20.3739,234208
20.3802,222167
20.3864,219798
20.3927,241378
20.3989,280565
20.4052,370299
20.4114,476976
20.4177,574269
20.424,592925
20.4302,536544
20.4365,474722
20.4427,465091
20.449,486942
20.4552,509055
20.4615,503820
20.4677,470899
20.474,416200
20.4802,395714
20.4865,372265
20.4928,417507
20.499,679444
20.5053,1488298
20.5115,3244293
20.5178,5638156
20.524,7564844
20.5303,7755759
20.5365,6067641
20.5428,3997972
20.5491,2591959
20.5553,1728426
20.5616,1244420
20.5678,961030
20.5741,807836
20.5803,717573
20.5866,670348
20.5928,636822
20.5991,613938
20.6054,598080
20.6116,593248
20.6179,611400
20.6241,689377
20.6304,1024651
20.6366,2071766
20.6429,4953016
20.6491,10739059
20.6554,18810024
20.6617,27392742
20.6679,34151056
20.6742,37809080
20.6804,34437532
20.6867,23042426
20.6929,11208747
20.6992,4995386
20.7054,2362087
20.7117,1447405
20.718,1056943
20.7242,803076
20.7305,570523
20.7367,443763
20.743,372189
20.7492,331387
20.7555,310334
20.7617,298438
20.768,285332
20.7742,262656
20.7805,242998
20.7868,246245
20.793,272492
20.7993,376935
20.8055,574358
20.8118,818780
20.818,957805
20.8243,884608
20.8305,703886
20.8368,547905
20.8431,509091
20.8493,527575
20.8556,528849
20.8618,473365
20.8681,405519
20.8743,347457
20.8806,341341
20.8868,353257
20.8931,431882
20.8994,545630
20.9056,687267
20.9119,797247
20.9181,836355
20.9244,707864
20.9306,526471
20.9369,381080
20.9431,320321
20.9494,316691
20.9557,343973
20.9619,350302
20.9682,357647
20.9744,336079
20.9807,314131
20.9869,300889
20.9932,304752
20.9994,330578
21.0057,392192
21.0119,496777
21.0182,630274
21.0245,722555
21.0307,698890
21.037,580900
21.0432,443205
21.0495,354547
21.0557,320121
21.062,313496
21.0682,329062
21.0745,319476
21.0808,312739
21.087,295853
21.0933,280207
21.0995,271271
21.1058,271653
21.112,282493
21.1183,312071
21.1245,361197
21.1308,434865
21.1371,480909
21.1433,531548
21.1496,616501
21.1558,769429
21.1621,817507
21.1683,763974
21.1746,631709
21.1808,530161
21.1871,514130
21.1934,527802
21.1996,509044
21.2059,446590
21.2121,374340
21.2184,314658
21.2246,279745
21.2309,261455
21.2371,255931
21.2434,255802
21.2497,279104
21.2559,370252
21.2622,572727
21.2684,857477
21.2747,1089415
21.2809,1133502
21.2872,927452
21.2934,731427
21.2997,690724
21.3059,800815
21.3122,996245
21.3185,1185258
21.3247,1232653
21.331,1060631
21.3372,707359
21.3435,439374
21.3497,290510
21.356,237610
21.3622,227112
21.3685,227380
21.3748,231674
21.381,236894
21.3873,250616
21.3935,258211
21.3998,257490
21.406,270029
21.4123,280943
21.4185,303107
21.4248,340625
21.4311,426494
21.4373,579739
21.4436,723246
21.4498,753983
21.4561,656233
21.4623,540048
21.4686,478439
21.4748,482530
21.4811,490770
21.4873,503250
21.4936,510420
21.4999,519494
21.5061,490924
21.5124,422839
21.5186,348973
21.5249,303873
21.5311,293624
21.5374,304350
21.5437,322063
21.5499,313899
21.5562,287191
21.5624,250927
21.5687,229313
21.5749,229824
21.5812,232194
21.5874,250257
21.5937,273846
21.5999,278629
21.6062,268592
21.6125,254060
21.6187,222901
21.625,211263
21.6312,203371
21.6375,191799
21.6437,198731
21.65,234796
21.6562,297218
21.6625,367575
21.6687,479871
21.675,651913
21.6813,839636
21.6875,1010369
21.6938,1128742
21.7,1257825
21.7063,1464709
21.7125,1550674
21.7188,1400226
21.7251,1047160
21.7313,708775
21.7376,474201
21.7438,356986
21.7501,301998
21.7563,291251
21.7626,287661
21.7688,295773
21.7751,300590
21.7814,299830
21.7876,316971
21.7939,351110
21.8001,439978
21.8064,632237
21.8126,1013695
21.8189,1436415
21.8251,1616597
21.8314,1436627
21.8377,1052716
21.8439,695855
21.8501,481682
21.8564,364331
21.8627,311413
21.8689,294553
21.8752,291852
21.8814,330811
21.8877,420138
21.8939,553771
21.9002,682994
21.9065,707064
21.9127,594391
21.919,438253
21.9252,331167
21.9315,275301
21.9377,256259
21.944,258682
21.9502,279828
21.9565,315011
21.9628,363039
21.969,395707
21.9753,415431
21.9815,394751
21.9878,373025
21.994,356605
22.0003,342797
22.0065,343304
22.0128,336348
22.0191,330035
22.0253,310304
22.0315,288181
22.0378,270000
22.0441,255369
22.0503,258992
22.0566,266330
22.0628,298515
22.0691,423069
22.0754,784616
22.0816,1624870
22.0879,2718848
22.0941,3247479
22.1004,3022541
22.1066,2022056
22.1129,1125793
22.1191,721025
22.1254,725262
22.1316,985344
22.1379,1361902
22.1442,1577341
22.1504,1437622
22.1567,1035276
22.1629,666784
22.1692,475179
22.1754,405175
22.1817,369351
22.1879,337823
22.1942,315276
22.2005,289321
22.2067,276119
22.213,273331
22.2192,269699
22.2255,267525
22.2317,260672
22.238,261534
22.2442,259185
22.2505,255386
22.2568,255206
22.263,261627
22.2693,312045
22.2755,521110
22.2818,1316072
22.288,3530970
22.2943,8401476
22.3005,15757708
22.3068,24855778
22.3131,32886524
22.3193,39693924
22.3256,44966232
22.3318,48697312
22.3381,51338252
22.3443,53675452
22.3506,54242316
22.3568,54477868
22.3631,53953384
22.3694,52732748
22.3756,51210364
22.3819,49253352
22.3881,48228636
22.3944,46664252
22.4006,44900832
22.4069,44930876
22.4131,47964744
22.4194,5082944
22.4256,1430471
22.4319,1067515
22.4382,900264
22.4444,778285
22.4507,685526
22.4569,629889
22.4632,574204
22.4694,540850
22.4757,511819
22.4819,498173
22.4882,495323
22.4945,491146
22.5007,480620
22.507,475774
22.5132,463033
22.5195,439042
22.5257,433255
22.532,452357
22.5382,488606
22.5445,546732
22.5508,584967
22.557,613975
22.5633,607980
22.5695,569271
22.5758,521441
22.582,468205
22.5883,414844
22.5945,383854
22.6008,375847
22.6071,371100
22.6133,379245
22.6196,385030
22.6258,385172
22.6321,403481
22.6383,430695
22.6446,465252
22.6508,482248
22.6571,474135
22.6634,458602
22.6696,418576
22.6759,409187
22.6821,408846
22.6884,402617
22.6946,382742
22.7009,352441
22.7071,321814
22.7134,294967
22.7196,285753
22.7259,280610
22.7322,279264
22.7384,280809
22.7447,296319
22.7509,326380
22.7572,386252
22.7634,446054
22.7697,485967
22.7759,472131
22.7822,407521
22.7885,335439
22.7947,293255
22.801,265119
22.8072,257612
22.8135,251551
22.8197,249188
22.826,244888
22.8322,244942
22.8385,241336
22.8448,242152
22.851,244669
22.8573,240540
22.8635,235881
22.8698,229588
22.876,222257
22.8823,216847
22.8885,214120
22.8948,211660
22.9011,207357
22.9073,209107
22.9136,210199
22.9198,207487
22.9261,204298
22.9323,210590
22.9386,212454
22.9448,217408
22.9511,218196
22.9573,210408
22.9636,208758
22.9699,211369
22.9761,215428
22.9824,233678
22.9886,260331
22.9949,294571
23.0011,335509
23.0074,364658
23.0136,363335
23.0199,356939
23.0262,332164
23.0324,299973
23.0387,276496
23.0449,256122
23.0512,246118
23.0574,245109
23.0637,243870
23.0699,237729
23.0762,218239
23.0825,203910
23.0887,198819
23.095,198947
23.1012,200141
23.1075,204850
23.1137,203900
23.12,223340
23.1262,236547
23.1325,246638
23.1388,246784
23.145,238994
23.1513,227008
23.1575,222146
23.1638,220952
23.17,227176
23.1763,251477
23.1825,294013
23.1888,370283
23.1951,429582
23.2013,469674
23.2076,515599
23.2138,618370
23.2201,703067
23.2263,740920
23.2326,672370
23.2388,530702
23.2451,398333
23.2513,330984
23.2576,312976
23.2639,315772
23.2701,299553
23.2764,271782
23.2826,242876
23.2889,222915
23.2951,215511
23.3014,212162
23.3076,207137
23.3139,209230
23.3202,209977
23.3264,219215
23.3327,220156
23.3389,230531
23.3452,221073
23.3514,205990
23.3577,192436
23.3639,186306
23.3702,194191
23.3765,193807
23.3827,198067
23.389,190110
23.3952,187320
23.4015,176712
23.4077,168782
23.414,170773
23.4202,168597
23.4265,167914
23.4328,166057
23.439,161523
23.4453,162369
23.4515,160769
23.4578,169155
23.464,160465
23.4703,162096
23.4765,154091
23.4828,162166
23.4891,165221
23.4953,187942
23.5016,252456
23.5078,375246
23.5141,523734
23.5203,573638
23.5266,513307
23.5328,365579
23.5391,261456
23.5453,205507
23.5516,181989
23.5579,182784
23.5641,177394
23.5704,174572
23.5766,176044
23.5829,173477
23.5891,170101
23.5954,165453
23.6016,159638
23.6079,159866
23.6142,161487
23.6204,159981
23.6267,158207
23.6329,157895
23.6392,155588
23.6454,157292
23.6517,159838
23.6579,165465
23.6642,168718
23.6705,171505
23.6767,171531
23.683,177238
23.6892,166077
23.6955,156798
23.7017,151989
23.708,149035
23.7142,149556
23.7205,154404
23.7268,163876
23.733,189392
23.7393,217269
23.7455,234239
23.7518,244345
23.758,241296
23.7643,219281
23.7705,195867
23.7768,177293
23.783,164553
23.7893,163833
23.7956,164464
23.8018,164643
23.8081,161395
23.8143,156355
23.8206,155896
23.8268,153731
23.8331,154118
23.8393,145891
23.8456,145691
23.8519,142294
23.8581,138713
23.8644,141974
23.8706,140497
23.8769,144049
23.8831,145540
23.8894,147726
23.8956,146561
23.9019,149363
23.9082,149337
23.9144,147402
23.9207,148014
23.9269,145023
23.9332,146676
23.9394,147164
23.9457,145419
23.9519,145623
23.9582,153974
23.9645,154498
23.9707,158696
23.977,159053
23.9832,159649
23.9895,156534
23.9957,153618
24.002,146485
24.0082,143934
24.0145,145192
24.0208,145616
24.027,149593
24.0333,159098
24.0395,163231
24.0458,165319
24.052,163830
24.0583,165802
24.0645,162456
24.0708,161152
24.077,152645
24.0833,146026
24.0896,143215
24.0958,139271
24.1021,146170
24.1083,152599
24.1146,167456
24.1208,174815
24.1271,176818
24.1333,163196
24.1396,164527
24.1459,161052
24.1521,165995
24.1584,164318
24.1646,167525
24.1709,162907
24.1771,158889
24.1834,158763
24.1896,158043
24.1959,170672
24.2022,197874
24.2084,241147
24.2147,279688
24.2209,283420
24.2272,261700
24.2334,235965
24.2397,219453
24.2459,193835
24.2522,180833
24.2585,159737
24.2647,153645
24.271,153620
24.2772,163647
24.2835,181709
24.2897,218324
24.296,265955
24.3022,284723
24.3085,284267
24.3148,257072
24.321,224382
24.3273,210024
24.3335,197348
24.3398,189870
24.346,180636
24.3523,177529
24.3585,172014
24.3648,163519
24.371,165015
24.3773,157514
24.3836,156072
24.3898,157637
24.3961,156225
24.4023,154132
24.4086,155443
24.4148,158419
24.4211,159852
24.4273,161851
24.4336,173270
24.4399,193822
24.4461,207309
24.4524,213881
24.4586,206354
24.4649,200337
24.4711,195759
24.4774,182382
24.4836,179789
24.4899,174918
24.4962,179517
24.5024,177480
24.5087,178883
24.5149,173999
24.5212,168806
24.5274,162786
24.5337,158636
24.5399,159873
24.5462,162609
24.5525,167820
24.5587,164622
24.565,165939
24.5712,167781
24.5775,174446
24.5837,179178
24.59,186774
24.5962,183008
24.6025,179523
24.6087,174762
24.615,173594
24.6213,177178
24.6275,173744
24.6338,175422
24.64,174711
24.6463,180420
24.6525,191104
24.6588,198831
24.665,213020
24.6713,227552
24.6776,243902
24.6838,274622
24.6901,302659
24.6963,326066
24.7026,325438
24.7088,305217
24.7151,286051
24.7213,266262
24.7276,248617
24.7339,228310
24.7401,219724
24.7464,219285
24.7526,220601
24.7589,219216
24.7651,209634
24.7714,218492
24.7776,234043
24.7839,254799
24.7902,254745
24.7964,245015
24.8027,224419
24.8089,210334
24.8152,193098
24.8214,177456
24.8277,177426
24.8339,178360
24.8402,182967
24.8465,191456
24.8527,200391
24.859,196812
24.8652,195420
24.8715,190679
24.8777,184757
24.884,181912
24.8902,196967
24.8965,223302
24.9027,327976
24.909,552059
24.9153,895813
24.9215,1170533
24.9278,1073461
24.934,770730
24.9403,469466
24.9465,287902
24.9528,214623
24.959,186989
24.9653,174850
24.9716,167973
24.9778,166433
24.9841,163521
24.9903,160754
24.9966,167264
25.0028,172854
25.0091,177892
25.0153,180942
25.0216,173848
25.0279,173128
25.0341,166945
25.0404,171913
25.0466,170341
25.0529,174388
25.0591,193854
25.0654,218930
25.0716,262703
25.0779,326616
25.0842,419773
25.0904,493756
25.0967,498211
25.1029,433683
25.1092,315467
25.1154,234841
25.1217,196090
25.1279,179964
25.1342,176242
25.1405,172530
25.1467,168836
25.153,167105
25.1592,166459
25.1655,164139
25.1717,157901
25.178,151760
25.1842,152100
25.1905,155010
25.1967,158137
25.203,155447
25.2093,153679
25.2155,151346
25.2218,154675
25.228,152240
25.2343,157466
25.2405,155920
25.2468,164139
25.253,162440
25.2593,171204
25.2656,190931
25.2718,222942
25.2781,268759
25.2843,293987
25.2906,291026
25.2968,258617
25.3031,219603
25.3093,187315
25.3156,168826
25.3219,161372
25.3281,163892
25.3344,171415
25.3406,176506
25.3469,183729
25.3531,184924
25.3594,181835
25.3656,175732
25.3719,166467
25.3782,157797
25.3844,155638
25.3907,155342
25.3969,158557
25.4032,161308
25.4094,171362
25.4157,178224
25.4219,184707
25.4282,181637
25.4344,186154
25.4407,184525
25.447,188768
25.4532,202300
25.4595,213716
25.4657,222808
25.472,219997
25.4782,212301
25.4845,204086
25.4907,190163
25.497,180599
25.5033,182004
25.5095,169958
25.5158,168362
25.522,169724
25.5283,175654
25.5345,187871
25.5408,210892
25.547,225250
25.5533,258874
25.5596,292048
25.5658,310496
25.5721,297984
25.5783,266103
25.5846,248322
25.5908,276284
25.5971,377556
25.6033,537249
25.6096,692119
25.6159,685985
25.6221,562010
25.6284,418727
25.6346,335614
25.6409,346541
25.6471,436933
25.6534,526550
25.6596,508184
25.6659,410805
25.6722,300185
25.6784,222166
25.6847,191260
25.6909,171766
25.6972,168384
25.7034,167624
25.7097,165665
25.7159,169832
25.7222,170956
25.7284,174820
25.7347,176988
25.741,189245
25.7472,195394
25.7535,200792
25.7597,198893
25.766,192644
25.7722,185724
25.7785,175827
25.7847,171738
25.791,174329
25.7973,179699
25.8035,195765
25.8098,228704
25.816,243811
25.8223,264339
25.8285,274230
25.8348,292190
25.841,304252
25.8473,313887
25.8536,303880
25.8598,296775
25.8661,307182
25.8723,328235
25.8786,320649
25.8848,285785
25.8911,242253
25.8973,212579
25.9036,189644
25.9099,182936
25.9161,172137
25.9224,166926
25.9286,160044
25.9349,159625
25.9411,159837
25.9474,164662
25.9536,170170
25.9599,174979
25.9662,172868
25.9724,170255
25.9787,170032
25.9849,171656
25.9912,170518
25.9974,173307
26.0037,172533
26.0099,159209
26.0162,155029
26.0224,146290
26.0287,151386
26.035,150394
26.0412,152507
26.0475,161561
26.0537,171102
26.06,185144
26.0662,186699
26.0725,180920
26.0787,163626
26.085,155997
26.0913,146928
26.0975,147868
26.1038,149534
26.11,145710
26.1163,144662
26.1225,147455
26.1288,146234
26.135,150214
26.1413,145509
26.1476,145144
26.1538,144963
26.1601,145274
26.1663,144806
26.1726,153490
26.1788,165431
26.1851,186001
26.1913,210149
26.1976,218940
26.2039,209002
26.2101,195564
26.2164,178107
26.2226,176306
26.2289,174776
26.2351,172430
26.2414,172220
26.2476,168778
26.2539,163618
26.2602,160185
26.2664,150299
26.2727,151266
26.2789,150684
26.2852,150285
26.2914,146256
26.2977,147777
26.3039,141811
26.3102,149338
26.3164,147028
26.3227,147445
26.329,147838
26.3352,151402
26.3415,149413
26.3477,152114
26.354,157613
26.3602,153096
26.3665,148589
26.3727,145158
26.379,142697
26.3853,146252
26.3915,146765
26.3978,145258
26.404,143243
26.4103,144202
26.4165,151836
26.4228,160649
26.429,187019
26.4353,235373
26.4416,282411
26.4478,307920
26.4541,293654
26.4603,252438
26.4666,212886
26.4728,180094
26.4791,161580
26.4853,153197
26.4916,150511
26.4979,145957
26.5041,145235
26.5104,152388
26.5166,149376
26.5229,147221
26.5291,146651
26.5354,143667
26.5416,144622
26.5479,144030
26.5541,143884
26.5604,148365
26.5667,143807
26.5729,144941
26.5792,146248
26.5854,149442
26.5917,158381
26.5979,171573
26.6042,177738
26.6104,185592
26.6167,188305
26.623,177528
26.6292,179459
26.6355,182657
26.6417,188742
26.648,188347
26.6542,188799
26.6605,181384
26.6667,168541
26.673,167657
26.6793,153830
26.6855,152183
26.6918,153681
26.698,148849
26.7043,151960
26.7105,153557
26.7168,148158
26.723,147933
26.7293,151438
26.7356,148765
26.7418,147683
26.7481,145291
26.7543,143033
26.7606,147882
26.7668,146498
26.7731,141686
26.7793,145172
26.7856,142889
26.7919,152574
26.7981,171507
26.8044,196418
26.8106,208065
26.8169,200388
26.8231,181471
26.8294,166870
26.8356,157031
26.8419,151974
26.8481,148698
26.8544,152134
26.8607,151543
26.8669,149839
26.8732,155222
26.8794,150336
26.8857,147286
26.8919,145928
26.8982,147380
26.9044,144847
26.9107,147239
26.917,146566
26.9232,148713
26.9295,149566
26.9357,146427
26.942,147603
26.9482,147347
26.9545,147335
26.9607,146185
26.967,148910
26.9733,150607
26.9795,151304
26.9858,146798
26.992,150542
26.9983,145825
27.0045,148229
27.0108,153839
27.017,153831
27.0233,155117
27.0296,155161
27.0358,161660
27.0421,166802
27.0483,170578
27.0546,179224
27.0608,184854
27.0671,209418
27.0733,247649
27.0796,284623
27.0859,285667
27.0921,252417
27.0984,207982
27.1046,176985
27.1109,163459
27.1171,155392
27.1234,156894
27.1296,155816
27.1359,153247
27.1421,151080
27.1484,158669
27.1547,159153
27.1609,156196
27.1672,158175
27.1734,160952
27.1797,155295
27.1859,156077
27.1922,152238
27.1984,149450
27.2047,153726
27.211,154298
27.2172,154502
27.2235,153599
27.2297,154853
27.236,154549
27.2422,156369
27.2485,155233
27.2547,153586
27.261,153713
27.2673,154282
27.2735,155802
27.2798,155705
27.286,157632
27.2923,157252
27.2985,157620
27.3048,156663
27.311,156517
27.3173,157041
27.3236,156403
27.3298,155319
27.3361,151268
27.3423,159904
27.3486,156128
27.3548,158302
27.3611,158414
27.3673,158418
27.3736,160636
27.3798,164107
27.3861,170098
27.3924,179138
27.3986,183335
27.4049,183366
27.4111,178388
27.4174,172631
27.4236,175218
27.4299,173247
27.4361,174718
27.4424,167331
27.4487,168501
27.4549,163535
27.4612,169310
27.4674,161474
27.4737,163369
27.4799,164714
27.4862,171861
27.4924,181255
27.4987,192281
27.505,198004
27.5112,202227
27.5175,204179
27.5237,206183
27.53,210478
27.5362,206715
27.5425,204672
27.5487,199994
27.555,198974
27.5613,198071
27.5675,199239
27.5738,234917
27.58,362257
27.5863,618693
27.5925,978020
27.5988,1250146
27.605,1211506
27.6113,955107
27.6176,633102
27.6238,386651
27.6301,257861
27.6363,204817
27.6426,192635
27.6488,186002
27.6551,182439
27.6613,180616
27.6676,180398
27.6738,178400
27.6801,181478
27.6864,179081
27.6926,180663
27.6989,178875
27.7051,179549
27.7114,176828
27.7176,176240
27.7239,176038
27.7301,175595
27.7364,175276
27.7427,176221
27.7489,175047
27.7552,174375
27.7614,178393
27.7677,178201
27.7739,179025
27.7802,187876
27.7864,201096
27.7927,225966
27.799,276196
27.8052,299572
27.8115,294452
27.8177,261500
27.824,223161
27.8302,198120
27.8365,189984
27.8427,187975
27.849,191958
27.8553,197808
27.8615,208707
27.8678,225902
27.874,230669
27.8803,232063
27.8865,217744
27.8928,201666
27.899,187261
27.9053,181890
27.9116,174501
27.9178,175050
27.9241,170081
27.9303,171353
27.9366,166532
27.9428,169446
27.9491,167781
27.9553,169290
27.9616,167884
27.9678,168777
27.9741,168910
27.9804,170579
27.9866,166518
27.9929,166512
27.9991,168736
28.0054,165106
28.0116,165107
28.0179,165611
28.0241,170356
28.0304,170047
28.0367,169791
28.0429,162448
28.0492,169385
28.0554,168416
28.0617,167251
28.0679,170716
28.0742,180755
28.0804,192662
28.0867,200624
28.093,214251
28.0992,202633
28.1055,196021
28.1117,182333
28.118,174713
28.1242,167433
28.1305,168513
28.1367,166052
28.143,165161
28.1493,165693
28.1555,167657
28.1618,161084
28.168,166585
28.1743,169096
28.1805,165475
28.1868,165685
28.193,166185
28.1993,165032
28.2055,163608
28.2118,162983
28.2181,159994
28.2243,163187
28.2306,161410
28.2368,161703
28.2431,159485
28.2493,164102
28.2556,161756
28.2618,157575
28.2681,159245
28.2744,160771
28.2806,158414
28.2869,160037
28.2931,161336
28.2994,159519
28.3056,159201
28.3119,161191
28.3181,160345
28.3244,162041
28.3307,161613
28.3369,164831
28.3432,170607
28.3494,170774
28.3557,173768
28.3619,167589
28.3682,166818
28.3744,159105
28.3807,160375
28.387,163601
28.3932,161718
28.3995,163177
28.4057,162729
28.412,163295
28.4182,161938
28.4245,167279
28.4307,165479
28.437,165355
28.4433,161984
28.4495,160933
28.4558,161125
28.462,160178
28.4683,160744
28.4745,162863
28.4808,165093
28.487,171404
28.4933,171042
28.4995,169605
28.5058,165599
28.5121,164070
28.5183,159141
28.5246,156716
28.5308,158556
28.5371,161868
28.5433,158847
28.5496,163640
28.5558,163065
28.5621,162654
28.5684,165196
28.5746,163060
28.5809,164032
28.5871,159951
28.5934,160679
28.5996,159605
28.6059,153836
28.6121,152816
28.6184,159014
28.6247,156701
28.6309,154408
28.6372,150941
28.6434,154287
28.6497,155016
28.6559,151346
28.6622,153581
28.6684,153430
28.6747,155339
28.681,157580
28.6872,159163
28.6935,153323
28.6997,160045
28.706,162684
28.7122,163599
28.7185,166467
28.7247,165954
28.731,166539
28.7373,165158
28.7435,158707
28.7498,160608
28.756,156939
28.7623,156372
28.7685,153827
28.7748,155620
28.781,152402
28.7873,151578
28.7935,152076
28.7998,152600
28.8061,151490
28.8123,153732
28.8186,149231
28.8248,151738
28.8311,150891
28.8373,152186
28.8436,145029
28.8498,151857
28.8561,152250
28.8624,148057
28.8686,149646
28.8749,154775
28.8811,152542
28.8874,146199
28.8936,144958
28.8999,149820
28.9061,150826
28.9124,151547
28.9187,150473
28.9249,151405
28.9312,154399
28.9374,151921
28.9437,147445
28.9499,150849
28.9562,150825
28.9624,148150
28.9687,150643
28.975,147921
28.9812,146630
28.9875,148322
28.9937,146737
29,146654
29.0062,148037
29.0125,149048
29.0187,147827
29.025,143209
29.0312,146747
29.0375,150412
29.0438,147405
29.05,149760
29.0563,147994
29.0625,143188
29.0688,146674
29.075,148405
29.0813,142311
29.0875,144484
29.0938,146034
29.1001,151493
29.1063,141471
29.1126,146437
29.1188,143508
29.1251,143197
29.1313,146010
29.1376,148174
29.1438,141250
29.1501,147103
29.1564,142437
29.1626,144349
29.1689,143724
29.1751,146743
29.1814,144289
29.1876,143877
29.1939,147216
29.2001,142684
29.2064,142741
29.2127,143879
29.2189,143772
29.2252,146207
29.2314,145266
29.2377,144976
29.2439,142946
29.2502,144553
29.2564,144550
29.2627,147166
29.269,140769
29.2752,145080
29.2815,145521
29.2877,145511
29.294,149150
29.3002,148972
29.3065,152348
29.3127,155549
29.319,148673
29.3252,152376
29.3315,152854
29.3378,145430
29.344,139344
29.3503,148612
29.3565,143150
29.3628,141667
29.369,145452
29.3753,146919
29.3815,143397
29.3878,139451
29.3941,147913
29.4003,142334
29.4066,142680
29.4128,143745
29.4191,142771
29.4253,144055
29.4316,143635
29.4378,143290
29.4441,142589
29.4504,149515
29.4566,145559
29.4629,147492
29.4691,146476
29.4754,143431
29.4816,140934
29.4879,141271
29.4941,145743
29.5004,143202
29.5067,140027
29.5129,142578
29.5192,139312
29.5254,142741
29.5317,143557
29.5379,140370
29.5442,142851
29.5504,139521
29.5567,139095
29.563,142253
29.5692,140387
29.5755,137690
29.5817,139337
29.588,134223
29.5942,139160
29.6005,139076
29.6067,141482
29.613,136231
29.6192,138643
29.6255,138073
29.6318,137404
29.638,140347
29.6443,143054
29.6505,132998
29.6568,137513
29.663,137163
29.6693,137847
29.6755,133815
29.6818,137347
29.6881,137790
29.6943,138175
29.7006,138150
29.7068,139835
29.7131,135752
29.7193,138989
29.7256,139044
29.7318,137599
29.7381,138916
29.7444,137076
29.7506,137485
29.7569,137142
29.7631,138537
29.7694,136367
29.7756,143541
29.7819,139825
29.7881,139548
29.7944,142745
29.8007,135114
29.8069,135123
29.8132,141446
29.8194,138592
29.8257,138492
29.8319,135150
29.8382,140880
29.8444,137240
29.8507,139991
29.8569,137704
29.8632,139714
29.8695,139062
29.8757,140676
29.882,137020
29.8882,141155
29.8945,140914
29.9007,135892
29.907,136578
29.9132,139481
29.9195,133334
29.9258,134429
29.932,137963
29.9383,136928
29.9445,136072
29.9508,136783
29.957,137809
29.9633,138980
29.9695,137311
29.9758,138065
29.9821,137121
29.9883,137990
29.9946,135646
30.0008,137847
30.0071,138776
30.0133,133950
30.0196,135018
30.0258,136194
30.0321,136874
30.0384,136330
30.0446,137395
30.0509,134726
30.0571,137722
30.0634,130033
30.0696,137447
30.0759,132505
30.0821,136323
30.0884,135156
30.0947,138546
30.1009,136462
30.1072,134182
30.1134,133542
30.1197,135816
30.1259,135203
30.1322,133673
30.1384,134368
30.1447,135260
30.1509,134393
30.1572,130141
30.1635,138238
30.1697,134214
30.176,136911
30.1822,132702
30.1885,136618
30.1947,132143
30.201,131815
30.2072,132721
30.2135,134866
30.2198,135754
30.226,135121
30.2323,132366
30.2385,133289
30.2448,132901
30.251,132188
30.2573,133245
30.2635,132930
30.2698,135349
30.2761,134254
30.2823,131971
30.2886,131939
30.2948,132981
30.3011,132792
30.3073,134510
30.3136,132018
30.3198,138745
30.3261,136128
30.3324,133393
30.3386,133072
30.3449,136992
30.3511,133502
30.3574,132017
30.3636,136423
30.3699,136350
30.3761,131732
30.3824,132976
30.3887,134295
30.3949,134707
30.4012,129684
30.4074,135565
30.4137,135547
30.4199,130361
30.4262,129496
30.4324,133400
30.4387,134321
30.4449,131530
30.4512,134726
30.4575,129352
30.4637,133750
30.47,131856
30.4762,132226
30.4825,129192
30.4887,134057
30.495,134251
30.5012,130350
30.5075,131206
30.5138,129012
30.52,131170
30.5263,131168
30.5325,130383
30.5388,134977
30.545,134241
30.5513,132686
30.5575,134066
30.5638,140999
30.5701,139275
30.5763,133950
30.5826,139534
30.5888,133070
30.5951,135724
30.6013,131167
30.6076,133079
30.6138,129853
30.6201,128314
30.6264,129929
30.6326,128057
30.6389,130129
30.6451,131546
30.6514,131160
30.6576,130828
30.6639,136895
30.6701,135668
30.6764,133113
30.6827,132063
30.6889,132219
30.6952,135826
30.7014,129805
30.7077,131331
30.7139,130929
30.7202,130448
30.7264,125508
30.7327,130995
30.7389,128510
30.7452,127512
30.7515,130335
30.7577,131077
30.764,130576
30.7702,126933
30.7765,133868
30.7827,130666
30.789,130799
30.7952,126926
30.8015,128800
30.8078,129624
30.814,129183
30.8203,128297
30.8265,127942
30.8328,129466
30.839,128371
30.8453,129249
30.8515,131398
30.8578,127811
30.8641,129144
30.8703,129780
30.8766,131709
30.8828,130779
30.8891,130016
30.8953,129070
30.9016,131660
30.9078,129659
30.9141,128865
30.9204,130384
30.9266,124552
30.9329,129318
30.9391,124736
30.9454,128251
30.9516,128449
30.9579,127467
30.9641,128323
30.9704,130720
30.9766,127627
30.9829,128643
30.9892,128360
30.9954,126711
31.0017,127702
31.0079,127846
31.0142,130253
31.0204,132413
31.0267,133190
31.0329,134022
31.0392,137586
31.0455,141552
31.0517,142247
31.058,139120
31.0642,138282
31.0705,136175
31.0767,134587
31.083,132015
31.0892,131751
31.0955,128655
31.1018,129592
31.108,129394
31.1143,128246
31.1205,129398
31.1268,128011
31.133,127322
31.1393,127707
31.1455,127434
31.1518,126917
31.1581,125534
31.1643,130082
31.1706,127543
31.1768,123449
31.1831,130273
31.1893,127691
31.1956,127191
31.2018,127175
31.2081,127312
31.2144,128584
31.2206,130196
31.2269,125474
31.2331,125023
31.2394,126433
31.2456,126720
31.2519,125143
31.2581,125777
31.2644,124017
31.2706,123321
31.2769,124509
31.2832,125232
31.2894,128132
31.2957,125453
31.3019,124622
31.3082,124682
31.3144,124005
31.3207,124587
31.3269,127549
31.3332,129011
31.3395,123152
31.3457,124793
31.352,125265
31.3582,129358
31.3645,129590
31.3707,125685
31.377,128580
31.3832,130853
31.3895,124757
31.3958,126916
31.402,124447
31.4083,120944
31.4145,124162
31.4208,125807
31.427,122857
31.4333,125999
31.4395,126623
31.4458,127530
31.4521,129563
31.4583,126168
31.4646,122950
31.4708,126157
31.4771,127167
31.4833,126876
31.4896,129684
31.4958,124688
31.5021,128913
31.5084,125092
31.5146,128918
31.5209,130741
31.5271,134282
31.5334,128788
31.5396,128143
31.5459,127701
31.5521,125585
31.5584,126922
31.5646,123712
31.5709,127522
31.5772,124791
31.5834,126846
31.5897,127005
31.5959,121885
31.6022,123367
31.6084,125183
31.6147,128079
31.6209,126130
31.6272,127373
31.6335,125236
31.6397,123089
31.646,120809
31.6522,125699
31.6585,126518
31.6647,122828
31.671,125578
31.6772,125702
31.6835,125128
31.6898,125081
31.696,122669
31.7023,122957
31.7085,122325
31.7148,121776
31.721,124505
31.7273,126384
31.7335,124286
31.7398,122120
31.7461,121523
31.7523,125659
31.7586,122862
31.7648,123705
31.7711,124310
31.7773,125562
31.7836,124292
31.7898,122169
31.7961,122029
31.8023,120517
31.8086,122516
31.8149,120925
31.8211,122405
31.8274,117985
31.8336,120748
31.8399,119077
31.8461,121439
31.8524,124247
31.8586,121556
31.8649,123010
31.8712,123257
31.8774,120768
31.8837,115169
31.8899,123852
31.8962,122422
31.9024,123196
31.9087,123904
31.9149,122874
31.9212,127726
31.9275,125509
31.9337,126137
31.94,124630
31.9462,125712
31.9525,123996
31.9587,129616
31.965,122674
31.9712,120699
31.9775,122160
31.9838,125007
31.99,126654
31.9963,120620
32.0025,121145
32.0088,121003
32.015,121004
32.0213,122805
32.0275,122118
32.0338,121486
32.0401,120656
32.0463,118626
32.0525,121487
32.0588,122749
32.0651,121963
32.0713,122499
32.0776,120576
32.0838,120699
32.0901,123159
32.0963,118812
32.1026,120783
32.1088,120634
32.1151,121543
32.1214,118346
32.1276,121411
32.1339,120730
32.1401,120522
32.1464,118996
32.1526,122319
32.1589,122588
32.1651,120888
32.1714,121507
32.1777,122543
32.1839,125520
32.1902,120613
32.1964,123328
32.2027,121046
32.2089,119885
32.2152,122425
32.2214,121616
32.2277,120551
32.234,119434
32.2402,120366
32.2465,119683
32.2527,122976
32.259,116643
32.2652,120720
32.2715,121306
32.2777,121599
32.284,119669
32.2903,116969
32.2965,122718
32.3028,120911
32.309,119624
32.3153,122548
32.3215,119945
32.3278,117594
32.334,119412
32.3403,122570
32.3466,119807
32.3528,123298
32.3591,121218
32.3653,118588
32.3716,121160
32.3778,121123
32.3841,122504
32.3903,122896
32.3966,122721
32.4029,117229
32.4091,118029
32.4154,120677
32.4216,119066
32.4279,118012
32.4341,120056
32.4404,117104
32.4466,117447
32.4529,118620
32.4592,118455
32.4654,116994
32.4717,119560
32.4779,120166
32.4842,119191
32.4904,119531
32.4967,119102
32.5029,118834
32.5092,120283
32.5155,117024
32.5217,118865
32.5279,117521
32.5342,118622
32.5405,118398
32.5467,120492
32.553,115184
32.5592,118653
32.5655,120335
32.5718,118177
32.578,120632
32.5842,118992
32.5905,119624
32.5968,120147
32.603,119861
32.6093,117270
32.6155,117416
32.6218,117152
32.628,118464
32.6343,122490
32.6405,122115
32.6468,119408
32.6531,122232
32.6593,120392
32.6656,116131
32.6718,122073
32.6781,118016
32.6843,118428
32.6906,122012
32.6968,119245
32.7031,121745
32.7094,116435
32.7156,116201
32.7219,117460
32.7281,118933
32.7344,121300
32.7406,117038
32.7469,116733
32.7531,118844
32.7594,116644
32.7657,116854
32.7719,118860
32.7782,119102
32.7844,117550
32.7907,118047
32.7969,119794
32.8032,115060
32.8094,118469
32.8157,117972
32.822,119673
32.8282,118872
32.8345,121993
32.8407,117172
32.847,116081
32.8532,118811
32.8595,121509
32.8657,117066
32.872,117058
32.8783,117942
32.8845,118398
32.8908,117326
32.897,117650
32.9033,117600
32.9095,114785
32.9158,115510
32.922,118903
32.9283,114732
32.9346,117325
32.9408,115922
32.9471,116729
32.9533,119152
32.9596,114645
32.9658,115163
32.9721,118407
32.9783,114766
32.9846,115886
32.9909,119078
32.9971,116323
33.0034,116957
33.0096,119495
33.0159,117513
33.0221,119267
33.0284,119384
33.0346,116891
33.0409,118010
33.0472,111791
33.0534,116713
33.0596,121338
33.0659,117793
33.0722,115243
33.0784,117763
33.0847,116104
33.0909,117705
33.0972,115365
33.1035,117957
33.1097,115153
33.1159,117114
33.1222,117585
33.1285,116161
33.1347,116916
33.141,122216
33.1472,118332
33.1535,117733
33.1598,116877
33.166,115127
33.1722,116040
33.1785,118808
33.1848,117418
33.191,116307
33.1973,116690
33.2035,116708
33.2098,116123
33.216,117455
33.2223,114950
33.2285,113714
33.2348,116829
33.2411,114910
33.2473,114993
33.2536,117101
33.2598,115121
33.2661,113429
33.2723,114316
33.2786,116084
33.2848,116906
33.2911,118469
33.2974,119284
33.3036,116498
33.3099,113961
33.3161,115411
33.3224,114840
33.3286,114795
33.3349,118379
33.3411,115350
33.3474,116992
33.3537,115498
33.3599,116230
33.3662,115983
33.3724,119641
33.3787,115006
33.3849,114456
33.3912,112055
33.3974,114680
33.4037,117635
33.41,116672
33.4162,114912
33.4225,116407
33.4287,117857
33.435,115628
33.4412,116532
33.4475,115977
33.4537,114475
33.46,113385
33.4663,115981
33.4725,116136
33.4788,115247
33.485,113656
33.4913,116527
33.4975,113694
33.5038,116510
33.51,111057
33.5163,115210
33.5226,116889
33.5288,116836
33.5351,116424
33.5413,114747
33.5476,115796
33.5538,117848
33.5601,111686
33.5663,114501
33.5726,117255
33.5789,115972
33.5851,115682
33.5913,115856
33.5976,111285
33.6039,111713
33.6101,115226
33.6164,113942
33.6226,113587
33.6289,115226
33.6352,112183
33.6414,114899
33.6476,113433
33.6539,113829
33.6602,113935
33.6664,115049
33.6727,112606
33.6789,116135
33.6852,116878
33.6915,114488
33.6977,112644
33.7039,112638
33.7102,116662
33.7165,119098
33.7227,113507
33.729,116080
33.7352,114920
33.7415,115738
33.7477,112437
33.754,114783
33.7602,114555
33.7665,116099
33.7728,116697
33.779,115483
33.7853,114939
33.7915,113529
33.7978,114181
33.804,116636
33.8103,113580
33.8165,115554
33.8228,115866
33.8291,111758
33.8353,120209
33.8416,114634
33.8478,112904
33.8541,116390
33.8603,112730
33.8666,116483
33.8729,112971
33.8791,114716
33.8854,115871
33.8916,115662
33.8979,113300
33.9041,113124
33.9104,115584
33.9166,116087
33.9229,112607
33.9292,112978
33.9354,115231
33.9417,115191
33.9479,111715
33.9542,114985
33.9604,111939
33.9667,111454
33.9729,114168
33.9792,115826
33.9855,114930
33.9917,112507
33.998,114134
34.0042,112522
34.0105,112156
34.0167,116852
34.023,116778
34.0292,117099
34.0355,115098
34.0417,112166
34.048,116230
34.0543,114348
34.0605,117501
34.0668,119140
34.073,115789
34.0793,117870
34.0855,116407
34.0918,114563
34.098,114476
34.1043,116175
34.1106,112533
34.1168,116652
34.1231,113850
34.1293,112252
34.1356,113444
34.1418,115529
34.1481,114130
34.1543,111548
34.1606,109142
34.1668,118268
34.1731,112422
34.1793,116135
34.1856,114074
34.1919,113209
34.1981,110997
34.2044,113492
34.2106,112886
34.2169,111282
34.2231,115058
34.2294,114234
34.2357,109458
34.2419,111708
34.2482,112941
34.2544,115666
34.2607,114089
34.2669,113466
34.2732,117669
34.2794,112229
34.2857,115422
34.292,112273
34.2982,112999
34.3045,112327
34.3107,111688
34.317,113447
34.3232,112806
34.3295,114489
34.3357,114632
34.342,110549
34.3483,108709
34.3545,113218
34.3608,113486
34.367,111987
34.3733,114702
34.3795,112280
34.3858,110662
34.392,114769
34.3983,115560
34.4046,114151
34.4108,110692
34.4171,110023
34.4233,115382
34.4296,115514
34.4358,110796
34.4421,112855
34.4483,107979
34.4546,111464
34.4609,116475
34.4671,114792
34.4734,111979
34.4796,112087
34.4859,114050
34.4921,111333
34.4984,113604
34.5046,111481
34.5109,115574
34.5172,113817
34.5234,112246
34.5296,111424
34.5359,115070
34.5422,113640
34.5484,114501
34.5547,114112
34.5609,114407
34.5672,114426
34.5734,114527
34.5797,115360
34.5859,115364
34.5922,110892
34.5985,111403
34.6047,110485
34.611,110514
34.6172,111144
34.6235,116101
34.6297,114238
34.636,110830
34.6422,115958
34.6485,113957
34.6548,110647
34.661,111757
34.6673,110678
34.6735,113558
34.6798,112539
34.686,112905
34.6923,112337
34.6985,114037
34.7048,114941
34.7111,114828
34.7173,113480
34.7236,111861
34.7298,113202
34.7361,111284
34.7423,110598
34.7486,110581
34.7548,111735
34.7611,116949
34.7674,110712
34.7736,110699
34.7799,112858
34.7861,112466
34.7924,110453
34.7986,107932
34.8049,112209
34.8111,112772
34.8174,111449
34.8237,111272
34.8299,109598
34.8362,110479
34.8424,110551
34.8487,111427
34.8549,115688
34.8612,112668
34.8674,112143
34.8737,112968
34.88,112515
34.8862,111994
34.8925,109590
34.8987,111422
34.905,110002
34.9112,115875
34.9175,111550
34.9237,112843
34.93,111101
34.9363,112789
34.9425,109987
34.9488,110645
34.955,109854
34.9613,112654
34.9675,110877
34.9738,112231
34.98,113163
34.9863,110370
34.9926,108990
34.9988,109429
35.0051,109315
35.0113,112736
35.0176,112476
35.0238,112722
35.0301,113133
35.0363,112669
35.0426,111732
35.0489,111596
35.0551,111215
35.0614,109454
35.0676,110667
35.0739,111675
35.0801,112245
35.0864,112019
35.0926,116094
35.0989,110199
35.1052,113463
35.1114,111622
35.1177,109375
35.1239,115557
35.1302,115376
35.1364,112433
35.1427,111663
35.1489,113628
35.1552,112167
35.1614,109906
35.1677,108166
35.174,108706
35.1802,111099
35.1865,115336
35.1927,111386
35.199,106374
35.2052,107759
35.2115,110437
35.2177,111070
35.224,111278
35.2303,107860
35.2365,107930
35.2428,111749
35.249,109509
35.2553,110441
35.2615,111880
35.2678,108831
35.274,110022
35.2803,113127
35.2865,111932
35.2928,114305
35.2991,113319
35.3053,110914
35.3116,109495
35.3178,110603
35.3241,110401
35.3303,110912
35.3366,113758
35.3428,108401
35.3491,111501
35.3554,113173
35.3616,110224
35.3679,110917
35.3741,108711
35.3804,112655
35.3866,110165
35.3929,112179
35.3991,108407
35.4054,111341
35.4117,107956
35.4179,108390
35.4242,109978
35.4304,108554
35.4367,110465
35.4429,107684
35.4492,110755
35.4554,111531
35.4617,112944
35.468,113106
35.4742,112228
35.4805,110364
35.4867,110771
35.493,113280
35.4992,110379
35.5055,110442
35.5117,113351
35.518,109045
35.5243,110900
35.5305,109953
35.5368,106078
35.543,111402
35.5493,109633
35.5555,111788
35.5618,108950
35.568,111469
35.5743,108565
35.5806,108788
35.5868,110134
35.5931,111299
35.5993,107858
35.6056,113225
35.6118,112473
35.6181,108906
35.6243,111913
35.6306,108451
35.6369,110698
35.6431,111942
35.6493,111086
35.6556,110178
35.6619,108368
35.6681,107638
35.6744,109966
35.6806,110805
35.6869,112497
35.6931,111395
35.6994,110476
35.7056,108327
35.7119,108671
35.7182,109631
35.7244,110499
35.7307,109573
35.7369,111343
35.7432,108630
35.7494,110440
35.7557,110926
35.7619,109233
35.7682,108933
35.7745,108170
35.7807,108302
35.787,108750
35.7932,107537
35.7995,111258
35.8057,111572
35.812,110195
35.8182,109159
35.8245,111646
35.8308,106529
35.837,110719
35.8433,108458
35.8495,110538
35.8558,113612
35.862,105663
35.8683,110683
35.8745,106827
35.8808,108439
35.8871,110131
35.8933,108232
35.8996,108172
35.9058,110450
35.9121,104747
35.9183,107871
35.9246,111051
35.9309,108940
35.9371,107882
35.9434,109911
35.9496,110771
35.9559,108071
35.9621,108745
35.9684,110669
35.9746,112467
35.9809,109062
35.9871,108872
35.9934,109917
35.9997,110509
36.0059,109473
36.0122,110064
36.0184,108799
36.0247,110305
36.0309,110128
36.0372,105933
36.0434,110752
36.0497,106107
36.056,106163
36.0622,110486
36.0685,106207
36.0747,106293
36.081,112278
36.0872,108522
36.0935,113320
36.0997,106770
36.106,109742
36.1123,109200
36.1185,108436
36.1247,106124
36.131,109377
36.1373,108975
36.1435,109462
36.1498,109814
36.156,109080
36.1623,112791
36.1686,111181
36.1748,108008
36.181,109385
36.1873,108468
36.1936,108910
36.1998,110137
36.2061,110873
36.2123,110226
36.2186,105962
36.2248,111339
36.2311,109040
36.2373,111184
36.2436,108041
36.2499,111366
36.2561,107122
36.2624,110997
36.2686,108825
36.2749,108042
36.2811,109039
36.2874,111905
36.2937,107668
36.2999,106875
36.3062,109274
36.3124,108971
36.3187,107234
36.3249,109482
36.3312,109647
36.3374,107459
36.3437,108758
36.35,108903
36.3562,110412
36.3625,108728
36.3687,109558
36.375,107389
36.3812,104684
36.3875,106454
36.3937,110133
36.4,108867
36.4063,109781
36.4125,107305
36.4188,109518
36.425,111139
36.4313,109120
36.4375,112815
36.4438,112289
36.45,107221
36.4563,107356
36.4626,111970
36.4688,109602
36.4751,110452
36.4813,112716
36.4876,113513
36.4938,109063
36.5001,106922
36.5063,110281
36.5126,108479
36.5188,108327
36.5251,108266
36.5314,109799
36.5376,108076
36.5439,105221
36.5501,109689
36.5564,110276
36.5626,109000
36.5689,109035
36.5751,110627
36.5814,109924
36.5877,111685
36.5939,109117
36.6002,109110
36.6064,109878
36.6127,110299
36.6189,109364
36.6252,113024
36.6314,111440
36.6377,106645
36.644,109533
36.6502,108349
36.6565,108149
36.6627,109946
36.669,108852
36.6752,110491
36.6815,105531
36.6877,107660
36.694,107062
36.7003,109932
36.7065,110252
36.7128,110728
36.719,108168
36.7253,107237
36.7315,104363
36.7378,108692
36.744,108681
36.7503,110002
36.7566,105807
36.7628,103091
36.7691,108112
36.7753,108967
36.7816,107126
36.7878,112313
36.7941,106802
36.8003,111180
36.8066,110375
36.8128,109052
36.8191,107985
36.8254,101494
36.8316,111113
36.8379,107572
36.8441,109769
36.8504,104813
36.8566,110397
36.8629,106232
36.8691,105833
36.8754,107625
36.8817,110077
36.8879,109210
36.8942,107842
36.9004,105684
36.9067,107141
36.9129,110328
36.9192,109342
36.9254,107062
36.9317,108226
36.938,106404
36.9442,108376
36.9505,107859
36.9567,107723
36.963,109644
36.9692,109553
36.9755,107015
36.9817,107415
36.988,107494
36.9943,106637
37.0005,106777
37.0068,108385
37.013,106422
37.0193,109406
37.0255,108285
37.0318,105729
37.038,105744
37.0443,104311
37.0505,107946
37.0568,108665
37.0631,108199
37.0693,105948
37.0756,106236
37.0818,105327
37.0881,105039
37.0943,107530
37.1006,108586
37.1068,111384
37.1131,105246
37.1194,109290
37.1256,110876
37.1319,107202
37.1381,110067
37.1444,107905
37.1506,108650
37.1569,105696
37.1631,107950
37.1694,108416
37.1757,103514
37.1819,106611
37.1882,106053
37.1944,109420
37.2007,106481
37.2069,108657
37.2132,106342
37.2194,109316
37.2257,110341
37.232,108714
37.2382,105972
37.2445,105643
37.2507,106811
37.257,106246
37.2632,105757
37.2695,108142
37.2757,104236
37.282,106877
37.2883,105517
37.2945,105052
37.3008,104349
37.307,107781
37.3133,108096
37.3195,106441
37.3258,106021
37.332,110151
37.3383,106474
37.3445,107723
37.3508,107700
37.3571,108473
37.3633,111332
37.3696,106832
37.3758,108921
37.3821,108324
37.3883,105094
37.3946,106683
37.4008,108507
37.4071,105225
37.4134,106714
37.4196,105851
37.4259,108266
37.4321,108203
37.4384,108660
37.4446,109208
37.4509,109042
37.4571,106752
37.4634,107600
37.4697,108039
37.4759,109168
37.4822,105708
37.4884,106737
